1.2201347470780564
2.727084648980943
4.774157052770116
3.0626272865375177
2.545138509565697
1.0895665403759158
2.232556351266646
2.814502546156373
1.9088807936332999
0.520619593179531
-1.4309677005059207
-0.7439393442641901
-1.5730855317812722
-0.08239740634273274
0.5218600695376043
-0.6603231003067143
0.22394324148291786
-1.610934761390892
0.946109972863455
0.11343217338657563
-0.379070005735505
2.1739260838886816
0.3831044250781198
2.4612229008609257
1.7996044655877275
-1.0469181082815209
-0.41392959761516507
-0.6443912696987436
-1.6393860416878696
1.921237093525023
1.0628702006295048
1.013491273081926
0.1074468833314135
-0.6169800735150412
0.3695059610167596
-0.9730438888329936
-2.518618076836506
0.32851620379828306
2.525928808642436
-0.15644379559677984
-1.308498163962622
2.241310531950226
-0.4805846482200326
0.9727436351442191
0.9018426165401321
-0.9836848622123737
0.5000834614298616
-0.24225381827860432
-0.5017309121681559
0.41048338268220574
0.34122270223422996
0.5988348404146375
0.6303077732219776
0.8575959599636634
1.2357295050853545
1.217371510295057
0.7996744080654422
0.7177346847562898
0.34161257192392624
-0.8416907459326088
0.6556146801453557
0.07253355281102361
-2.105596795373559
-0.6347613818131256
-1.364757463111829
-2.422168028207384
-0.6170394654069793
0.3207528313734743
1.37035762918004
0.5639292886786202
-1.509876735891423
-1.3912775958205488
-2.0075514912280705
1.2927052486894608
1.0224669347188986
0.18920853379815178
0.5105592258097388
-0.2681697526142251
-1.7026846011925199
0.6649454263521916
0.14041400646996077
1.522678135231851
-1.3003284050890973
-1.0285695266782928
-0.6212787186875709
-0.4336314199851261
1.724369536014731
-0.04926045476585095
0.8557419311393593
2.6051459907417986
3.116374010786608
3.9819055574884
5.349706436051538
1.3644450175561709
0.11952319278667228
-1.2195705954041123
2.382840742836627
-0.6973619673504703
-0.572426689622825
-0.12761912725779867
-2.5682623600399306
0.8810548359376358
-0.7656499829024415
-2.7499443974494637
-0.007035580288343918
-0.32324344391118476
-2.2504134037045977
1.3355425135103491
-0.037773585743895
1.154321315165972
0.7641035873348045
-1.126742521806936
-0.47069778591787326
-0.7376949056941953
-0.543759149966135
2.064619717799373
-0.3024385407299168
-0.39283073909583877
0.22053374742744136
0.6359952696277327
1.2969231416068172
-0.3687809104672838
-0.0065401306455163954
-1.7301084267374138
0.08957029043755094
1.965515632769545
0.9544453343954833
0.8735685701642075
-1.8999845725603828
-0.7196428128184159
-0.023164637540442845
0.07156292453267582
0.48383846067210573
1.5565812474429015
-0.5395762624581646
-0.1164516248954357
0.6115525792584466
-0.6196666009524214
-2.176636732521156
0.9933918447382653
-1.011238408953589
3.979891373638445
7.860385421409701
4.551103017411902
4.922285125658608
-0.08600970303082028
-1.3506004743645348
0.022492557784083322
-2.5914190426861334
-0.7065756260098102
2.8818624704581683
1.1446924215003662
0.9979533108630401
-0.2646717714959826
-1.381230482771022
0.11613140486113366
-0.0981714631751469
0.6576361014686607
0.6242634136318839
-0.364902508951697
-1.1411760170737768
1.1621767125373774
1.0089477816194268
-1.0574832637623235
-0.2987269958920582
-2.126952088535428
0.14122969227078597
-1.2812456945091957
-0.2011750366296896
-1.4928189506313763
0.9632695311826692
0.15939783333773924
1.3687778680202953
0.514241689521969
1.8761055310677688
-1.662633799200385
-0.18902603544088506
0.5411813118489481
-0.7605816586323029
1.0197255995668317
1.0231207864398089
-0.0554091529750349
0.8175427552910894
1.0698977441540687
-0.15783894616675398
-1.3322544918618309
-1.4675391083610367
0.32294640050860607
-0.7590702090327378
-0.7414225360442414
-0.22843031524309287
-0.8141918483846051
2.0841195399227015
4.1124024492669795
4.634229821353589
2.4970611999721863
-0.7879079973200088
0.17805149595135006
0.6434933158301444
-0.28859962874169054
1.6516191458564196
-1.2045716113005653
1.5017890692177005
-0.5618778921607467
0.15298482272543965
-0.8887619984568732
0.23647766291956107
-2.412395593462778
-0.5078561810465166
-1.2337483820374318
0.4027961408982852
-1.233835655802976
-0.4257313571529619
2.4722598152897883
-1.3190024960128395
0.3004817208357259
0.7705882319923317
-1.2967766596613153
1.6126036163523918
1.5933702441474844
1.2361003286437782
-0.5306131764764532
-0.40619718735273197
-3.3863109155829925
-1.09913999783031
0.1557154613544564
0.7088729611525284
0.9617810093485484
-1.588437395997187
-0.7095651742613357
-0.27859724301843586
0.4777431319707276
1.2068060783908279
0.21857725279189538
0.49753781841662414
1.2745729183456695
0.8521870362536115
-1.5615505557897653
1.7759945059382962
-0.4768920121208945
0.23067068430408788
0.6464936877545133
-2.015048538691331
1.523516657935415
2.637808474775299
3.2851010459849013
4.2865082140788
-0.1066867992061713
-0.28850279927992273
-1.1694292575600223
0.9819368021773971
0.5175123006685395
0.25372505100033826
-0.1379709457098096
-1.1867643643382282
1.379081924766182
1.3711084848912305
-0.21451833888522823
-0.6622176315039694
-1.806781884270262
0.22124468404803724
-0.6772577395263457
-0.42559104534158115
0.9490081895900374
-1.0975891339444694
2.1339711605278366
-0.4108588128263162
-2.2147519344200517
-0.9255712043450124
0.545067661788081
0.19050303241445726
-0.3004220638784096
-0.6526884406095008
-0.7984075991384902
-1.757941414626618
0.34862173715321587
1.4391315062155452
-0.39157906291116756
-1.4410164050851435
0.23229563423336136
1.4792275412270974
0.9469041818807987
-0.902848006191064
-0.34381933559369404
0.11378416422231757
1.0248978219596667
0.6698219248730684
0.1108893552400327
-0.8003203257810464
-0.5955960120073255
0.5889122457304871
1.2799703735417975
-1.1578038430974984
-0.7579230608474704
0.5077326861117986
5.698792522988746
3.5478853524215976
4.694465244523284
1.1688544014902822
-1.3684157156139305
-0.01120476380556823
-0.25275002700369714
1.6901425816911606
-1.1292950823349086
0.5401010175473395
0.28874042261482763
-0.6842007860465948
0.47013760798352466
-0.38461919199985883
1.2063499125776467
2.347831041307488
1.7133157477233665
1.7032126727093666
-4.063003025598984
-0.380801635796967
-0.14277525805789854
1.0885147353130287
-1.0885396844408892
0.35385368461294625
-1.5990434571363867
0.7888261430947504
-1.4820841021210742
1.322478519717433
0.7182632269485749
-0.4708874672202572
-0.583553484824424
-0.20001355770771204
-0.8618636872335951
-0.3897004385314705
0.7528371257823503
-0.5531645486770903
-0.4288060253186099
-1.8815625085191436
1.9482331476858485
0.3036076508062538
0.4848690050873167
0.6443206401429983
1.8189602982896187
0.3673308577066699
-0.5608196803680001
-0.0011466637376589262
-0.41019761078500433
0.37225865017676246
-1.4518097054865582
0.30654932111929467
4.527506471273102
2.7549957500304703
4.442142709889776
3.086858493493213
-0.180612279448078
-1.8855924370598494
-0.06501741136944006
-0.36267376646989347
-0.8856030915802826
-0.9762061207275169
0.28101025510061894
0.15927800621820776
-2.468826294026228
-1.7649744338662967
-0.5980428211431745
-0.32701908940914004
-1.2339961631392005
0.05283700074617871
0.5394939961622894
1.6472434288294298
0.8802712866929563
-1.5675962313105112
-0.1291687218648928
-1.135920804540139
0.6501505960369063
-0.4093189632662346
0.38628552221375045
-1.5695830285788424
-0.6058597036159649
-0.6596494325204834
0.7638022142191236
-0.9581953405946961
1.6905793252878047
-0.2993278795402416
-0.44499180795573456
0.2057948443584862
-0.9621665328937251
-0.6893307693097639
1.5283885864039228
0.528810513568155
0.22316360988059336
-1.2672732411823229
-0.7615178152573184
1.4379587326847971
0.7500786184722775
-0.9440262694378422
-0.8108948350122054
-0.07891383422615206
-0.42496621722520467
2.753107505641625
0.260060698446841
2.5470823229299913
5.930577275663854
4.327990510568899
3.4652780452290584
-0.45838772712458314
-0.20659591990389042
1.182111838959064
-0.43669362171457893
0.3351375040975635
0.692938971092932
2.6890934115864864
-0.49878315575746923
0.2209917287060525
0.1037093698169698
0.2653685242591852
1.747783664935933
0.5063574321662058
0.06973686898807141
-0.5593582655973646
-1.0156242835104368
-1.3647519033439268
-0.027150300066946367
0.2960734820173667
-0.012173800585427441
0.6214965074444623
1.760238503422213
-0.20874699989269307
-0.09369378720590577
0.09021942266205543
-0.2566411236012549
0.5364719452925594
0.03213408447506522
-0.100582219013027
0.23266367010530023
-1.412996488296543
0.1591011607581837
0.4881453614318756
1.7332466848657933
-0.7633587270604834
-3.0047411829726363
2.1598683658466173
-0.182897028653636
0.26445664699406934
-0.23536213753533092
-1.6407113714535762
-1.788734766976789
-1.0330031548832896
-0.21319740337026127
1.8712789787011428
-0.3308232071924614
1.030630967507284
2.4000033933979497
2.825514098759645
1.6990381007712698
2.3592398423693215
-1.9986110984337548
-0.6065098644541679
-2.1194557211198886
-1.1536514424097208
0.2953898581917774
-2.4083011145501647
1.8163343915045482
2.891306495651248
0.18896079264008303
0.11939010522849297
-0.18856882194291297
0.18375150743144153
0.2744144850114197
1.0669606239693734
-1.3388954411196847
0.3587657294461548
1.0188889646850297
1.0842481584330166
2.046501677987799
1.712842476095023
-1.006496042468907
-1.3038919993322962
0.230764415487289
1.048419473598476
-0.9985417117396548
-0.581645451537856
-0.127151385957783
-0.7031270986696172
1.9525879129573447
-0.61789163003613
0.07607968250477909
0.2314179734141931
-2.3223965377990448
3.8070411028887543
-0.24903726476030424
1.3179515105732595
-1.7493593979209843
1.9541553377473908
-0.09610689540866585
2.1267756483404208
-0.6982522531957891
-1.2137866107112538
-0.20907273327033654
0.6374184274647173
1.7940329922474123
0.2853859024048244
1.221525674653936
-1.4515306503371759
1.1595547620022078
-0.1360010122811236
-0.2728221553281165
-1.8230830712212995
-1.4411451304407068
-0.6832011229358914
0.8004522263391173
1.3843176810976972
1.315525214953263
1.7882453641130698
1.4181218281919583
-1.286371497568301
-1.100985699563612
-0.7002457060724872
1.8264055736847298
0.31009329082806364
-1.2548479640845325
-0.8895796195077373
-0.5759227418120074
-0.8529337031077149
-0.17886713109046093
0.26724602115755125
0.2016057901450659
-0.28800018164664926
-0.5705406867113273
-1.300453384617231
-0.16277675270804665
0.9027511136000679
1.538116001457394
2.5779106304018464
3.825006775238242
5.361107874952601
5.942616815723808
4.19566716274097
2.7704809592541517
-0.4493139189102063
1.5682543389981902
1.8072517895833122
0.054308683903481925
-4.375796032173369
-1.9723814695251396
-0.29732757971086776
0.5608724131124111
0.06166035918639879
0.7790903528622296
-1.0444323943727278
-1.966182188505116
-0.5443425566372588
1.3402029085985159
0.21498760910149067
2.197846430301219
-0.09392130664477671
-1.6584794971794805
-0.5569655829924595
-2.0558208225992174
1.77806009962614
0.5247518647211667
-0.5281648775161626
-0.40545051874679416
0.05305920919546214
-0.801603856922646
1.882982268587468
-0.7934441363629327
-0.07054747620715526
2.237031994567686
0.17537021689799043
-0.7943592394543304
1.6971288172311865
-1.6523366085934246
0.5145626633385083
-0.024587084544288235
-0.8647097185885216
0.5286995551272239
-1.3696353642448522
0.7341918051207788
-0.6372602100742536
0.24356474763656702
1.8697280738289326
0.44332415521021773
-0.4555459849930195
-1.8067711235508561
1.576717409732431
-0.7472644147662454
1.36843639803632
0.8580885576918268
-0.49811716813242957
1.1717848700207258
1.3371095986657326
-0.19470176836943145
-0.16148821727793738
-0.4263521478557685
-0.03429349394290948
0.6188558617981648
-1.901959640382968
0.13171373307247847
1.2188600499065627
0.3692512492536903
-0.006253058574773318
1.703234244666336
0.4423846829572917
0.4479839851957724
-0.038832607046711695
-0.026959713333391866
0.8551662200978793
-1.2052204962265698
0.8459365825918916
0.2782004044443634
-0.081518268393897
0.6668580044587871
-0.4278633388262652
0.15120257616242613
-0.2313606685097083
1.0906645840479756
0.1368816988758794
0.6978265215765314
-0.677892757823436
0.756127876620921
0.2594609091395408
1.4792249755198297
1.0533588375533485
1.9078243828575834
1.2448730387296485
0.47623593181352647
0.49822514594309686
0.5194459533378079
-0.739450059343107
-0.04316007581284121
-0.6197825972584387
0.20004046449254495
-0.18756544629774724
-0.3323183674258754
-1.3539366497392475
0.7344147982426783
-0.8966762960601602
-0.08341593912289824
-0.28260445157730224
-0.2576663179169466
0.6298442009550517
0.6014815491255527
-0.04292442333825433
-0.1995378621713964
1.8979431407684393
0.2534476441727907
0.3582550427704039
-1.2499650901186106
-0.9078677816841436
-0.49378502728471746
0.1888249923720411
-0.8184362911958378
0.6311024327788008
0.07758964204589502
0.0959623748913308
-0.3251906559356792
0.8477331943814289
1.6963415386800098
-0.05566276456817634
0.978025251523614
0.4994043908201603
0.05530587030835647
0.04709604538964754
0.6276278174465804
0.8435997127639566
0.14422799629670668
-0.8081237341040723
5.318195441393702
1.398318001731226
3.2793039219388564
-0.7757615771709229
0.7278565931266265
-0.41493307122997913
1.2880994938726498
-0.34444922931110433
-0.3395902607880518
0.6873612115139252
1.0550947482152557
-1.2126698512097982
-1.3546936251879391
1.9121818246082638
0.7943343201229762
-1.77419380358384
-1.4597433093154335
0.7892085577362828
1.0461614926958909
-1.7494581211248854
0.4192508745725221
1.4463380174977614
1.8432042711281535
1.6053976900995495
-0.09908974668973314
-0.4655604402783039
0.22740451253804794
-0.6789505554650952
-0.3622301962798187
0.10861009313146985
1.8845694985805121
-1.059124926807867
-0.8593798836322741
-0.06709238374258297
0.3042926847808511
-1.678099097653261
-0.3473595894775287
-0.7943862669689284
-0.4159419097979667
1.8762617695857042
-1.072422200287447
-0.22985432150488175
0.9733895116127135
0.3605603310883849
-1.3933923366652885
-0.37763900447609716
2.4237209017943124
2.5428393112069756
5.1577363794066455
4.438654040697282
1.2513509451412062
2.41866452202955
0.24849091142496255
1.6601498560149235
1.1544789701059248
-0.7949287111873254
2.197051533945044
1.4370404269282755
2.0083746451242286
0.3960887888370806
-0.916011475997834
-0.24842062009939025
0.26826782557324114
-0.9176142675627807
1.5635439349447497
-1.3456573599813364
-1.749933953548527
0.855455976740549
-0.10865873984273963
-1.1188129814131147
0.6127710644287019
-0.09893294708106357
0.7320621629635059
0.7440338866730449
0.8197710008568273
-0.7579387736546742
2.3126272290482714
-0.9670360276872992
-0.13819205688198355
-0.9345302578216642
0.4129103721179803
-0.4480701312505528
0.5759976405722094
1.547824400982409
1.9081598074564932
-0.09460145723493318
1.0175170340837516
2.039936719061108
1.2506343393731438
-0.44306508100596304
-1.6572497043485888
0.912650270623985
1.0302547246322553
1.2355347463608688
5.077017596631928
4.330422664331955
6.338201930708413
2.3638250221978234
0.8759364211120344
-0.13302357693243455
0.6811148559591353
0.9542425634082555
-0.0015972881152171298
1.7724034571303129
-0.527564569255802
0.5921051237943632
1.090643332872534
-0.7493500167438107
0.3970778764047085
1.014004652899107
0.5891204875818371
-0.015386228136347546
0.16275374016470395
1.2936099661418488
-0.19808271226706503
-0.4704240555535102
-0.24847243144859052
0.9229895014659582
-1.63514468922314
-1.9020891158468909
2.0021356770927263
0.48406612486012884
-0.03427931452666921
0.32693874479452123
-1.0990155083775803
-2.065596131512373
0.6653904906798719
-0.9158307539726495
0.03833503216707951
0.49882791054075215
-0.4347208237049808
-0.8964943218288413
0.06762844911629198
0.26947123593765576
-0.8297677210530939
-1.4555275031662191
-1.1561485789295225
0.9327431087909699
-1.9774848477053657
0.5219962787777156
4.561215500484395
4.45773628006624
3.7809298163843
5.594776063762609
0.8346964534568626
0.46397319305778273
-0.4666614139031887
0.9997993967945079
0.15603465341966538
0.5199322819683312
-0.18922761922552556
0.1321823484521657
1.3384803270641663
0.10847951823801948
1.183460524518706
-0.22485479952712917
-0.16665301155034307
1.1307347711598255
1.929826531532855
-0.5664235234687583
0.9859867222852999
0.7324701550014141
-1.4456775410517688
-1.4554920992139724
0.005760374480856478
0.40925932001362614
0.5938794550254431
-2.1177694050092963
0.34329528084991484
0.0029191315643044558
-0.646529017255255
0.7252483286465751
0.9901500651368687
-0.19455535113510186
-1.0306568464788985
-0.4095809346299568
0.9672139460524435
0.8574239245299377
1.4446815662339136
-0.44206307751561313
-1.8792412570903552
0.8936442285321387
-1.7408100782220703
1.1890500566689428
1.0900208815847257
-0.319568124885528
0.26503959072655736
4.6608920891368095
4.340697360649292
3.67281324775306
5.051045936690437
-0.301385297885873
1.0729591282246789
-0.7531136754268881
1.0655086706272616
-1.0199507984129967
-1.5913673127189092
-1.0370279223525993
-0.20592897302214608
-2.0553446851901733
2.3511391761792635
-0.6037131585363765
2.411202317174399
-0.663502608353877
-1.9367235986768425
0.6074405411719965
-0.22665338693415094
0.47319541174268703
-1.3195747051632767
0.37434551573955455
-1.2075464446631703
-0.10132584444533643
-0.5742146244141679
-0.8446803679564607
0.7594831668939022
-0.2668750395672454
0.6709108536645144
-0.25465567393321864
-1.2992558308786037
0.4386037620383334
-0.33618177906324437
0.6158342050429783
-0.6034529201330922
-1.4481557082677874
0.8405940823909199
0.1455458078728251
0.23042674503920657
0.32899257832168477
0.09539121412258822
-0.14255018834955846
-0.020825137883530388
2.3162025954445813
-2.9315169629387037
0.8039972305446832
3.068894028363893
2.5943235160468374
4.381747260465728
5.063132156351354
0.47144383952953545
-0.6612493304761304
0.7307542454607402
1.8390613937549716
-0.946283145057272
0.715037508621174
-1.046629964787312
1.1931813366972674
-0.5069648120832451
-0.7425155794222428
0.3171043942005005
-0.9349224206942932
0.013904916367174863
1.2659449687814406
0.9042472292659329
0.4125195515913469
-1.3002830324623569
1.7029247401140695
1.4482279966487408
-0.39883208728425185
-0.5625881372915542
-1.2994457962500405
0.22494521215132457
0.8648680251962697
-0.5472607546315712
-1.1180623797620624
0.04689296381482744
0.23034925282452437
-0.8608556522654403
0.45754465652124476
0.29646558102751064
-0.8501916717218672
1.6505074675060463
-0.34822049690362833
-0.6871267869893981
-0.7581812258906292
0.11558870315276443
-0.64452665755775
-1.2248838001206201
0.704990032846436
-1.012573407904184
-1.1066941602192408
1.0914416649545662
4.9027704056427766
6.047325522769199
7.082344076753976
4.539092449414718
-0.5132096568749142
1.885850449250071
0.30178937787352467
-0.8126601094900481
-0.47972354560620634
0.6997232783575543
-0.49487121618018215
-0.8490127010008472
0.7251406730068342
0.8280077958332516
1.6433391842082656
0.7401584067489874
-1.0953768102994736
0.666932409068471
-0.1535170632696411
-0.07925942750404136
-1.1008944341020472
-1.317692413895668
0.7052449547741602
-0.522053110638327
-1.237259931832837
1.5040906988860823
0.26641679984135863
-0.9894486958417255
-1.4596115745539204
-1.5905100562413077
0.3824369395795451
-1.5430278836961315
0.6085107672505833
-0.3157815300257724
2.174191682780301
0.551429755235498
-1.2841312209392632
-1.0495689028531057
2.531821257282079
-2.1987570212535386
-0.2336938076866653
0.9008704577241001
0.4627137045648791
-0.3436299403491566
1.6794691546437188
0.7230339823428588
2.0863726523860056
1.7233284981004973
3.7931611734335693
1.7902616751258762
2.18835406599959
-0.42153515486780013
-1.9418186567602058
-1.4503153880561381
1.653748795209343
0.4351013675487019
1.3820553240374593
0.39686708662308784
-2.13662756094456
-0.7072431599125405
0.18451767653696738
-1.2843767275114355
0.6396379603401828
-1.5092309821208492
-0.7952908817675467
0.6147115072003818
-0.04831390272831998
2.1483579180229286
-0.21129182022261966
-0.6987100326933701
0.7969850099279415
-0.03807370013452238
-1.4275968350342523
-0.6678640801994415
0.08214767129943024
-0.5424165030082501
1.8855273739011005
-0.6648032897953182
0.5717531219430275
0.02372123920671715
0.410025497991917
-1.3568303775103505
-1.3461890796247475
0.30060529581289286
1.5089125746904057
-1.904201127286447
-0.5474015624649866
-0.46519636590650937
0.8547137440930108
0.1104768872289077
1.337289187425016
0.15299240378455287
-1.1201595888943081
-0.5438763051285094
0.0640482455516116
0.5797786357465485
-0.254522396641151
-0.053666671043608394
-1.1117159514846615
-0.09087276890175308
-1.2264128576575746
-0.832393876620113
0.3261597126207003
1.668453794377172
0.15046383428636084
-0.08257798719335371
-0.025559178086374423
-0.46318178086517087
1.1450286397781904
1.2352042057588448
0.7467360632003217
0.5565368117407223
1.2680152364003747
2.7743295816769336
1.730391844905832
1.7960674579687796
0.9440270691465766
-0.5632533378850968
0.2782745468463441
0.2667748146290387
0.8225169660756053
0.609458335374224
-0.4371513057036581
-1.4102724399694648
-1.6228760724219522
-0.47892781237991244
-0.11484268513079315
0.18953186103086933
0.46384672851631364
0.038606712792632
-0.6239761543852103
0.11080103541593156
0.4478105562667245
-0.24237045067881197
-0.05607127893814357
0.8603850521178571
-0.8390389276319099
0.6204920333226074
0.42128157124222937
0.9839928984891645
-1.5694746718169914
1.0905294041428821
-0.11469870194825335
-0.2599354166621812
-0.4272746150983784
0.029533657212118834
0.898322958033024
-0.383802606239478
-0.030731207667524907
0.3835362514413563
-0.8538068139816148
-0.3360606360168482
0.03878935179402526
-1.6262906742982262
0.12547326926810282
1.1093363153859064
-0.4272273938096872
0.2664740253918239
1.0547631309120171
0.16598581893938724
0.47373198951849915
-0.5406191717190612
0.038408047155412184
-0.814199927303622
1.1698920712340393
-0.36635196840202433
0.010607329926731385
-0.9559322016617529
-0.31401167264810104
0.1163266987148959
-0.3767423022248298
0.27574119726894125
-0.6005965052469554
-0.5032922648835022
-1.2525805346102477
-1.0388074968572587
0.9315079995572388
0.05299144074914522
1.431821452114721
-0.7423596634642926
-0.3478819906010641
-0.04147051121920861
0.31423404302064295
-0.3916159468612861
-0.6290499343498357
0.6875196453042389
0.9393424286293253
0.9327486808330846
1.5661946004498697
0.5443600922329139
-0.0783140173686491
1.2569727754560935
-0.04093508364326945
-0.282894281821949
0.3398560854852549
0.21848326468205026
0.08751676421729787
0.30850597501459615
-0.8830192647711091
0.24094340070593245
0.7488507769304403
1.1404081741588759
1.6735674717353253
3.1079353560767777
2.457358877798107
-1.638181267339408
-0.18483447863461322
0.10432483793918806
0.8785524301847949
0.30758578355374677
-0.4770800672649085
-0.9674483401909367
-0.15705902137080396
-0.6985596310669294
-0.20113060968532218
-0.11943677725387122
-0.0030605203173421636
-0.624054994148939
0.22055975877571576
-0.36137364667062355
1.1160041755705448
0.1612948533144677
0.21219481003647944
-0.09531933641887247
-1.337877600660125
-1.5407344484356003
0.11894176830298486
-0.7460912728413912
0.5342936046225746
-0.37609280500883435
0.882815206627271
0.4212471373235003
0.7353383954178225
-0.5477170695173876
0.7862142206130136
0.895849043622289
-0.30060533576969983
-0.7240219530959318
-0.4291998407275274
0.16873851258849926
-0.14873541068904955
0.6465900149855557
-0.33490601513772
1.491024338168165
-0.7965246504306649
0.7495108827465682
0.6834492075730035
-1.186496911488287
-1.1185865916151625
0.5831652243932233
-0.5255792315172035
-1.3682314385120726
-0.37691800226029004
-0.6505548724951782
0.12388247048769654
0.9574732422120817
-0.8290611446321092
0.008634347011021337
-0.2260652829155183
0.7667422570094435
-0.8864915244163409
0.020524412197563763
-0.33408532539915226
-1.0293105711814987
-0.7792907244762227
-0.4474451831739238
-0.6040972096021004
0.3395792511133774
1.7140120308134326
-0.14398603331010865
0.07527435011097744
0.36957583158509366
0.5386863902881199
0.26334594755092716
-0.5231909377630422
-0.024321233157964584
1.5155137677175272
0.2182585056760854
-0.14467888906824555
-0.7593380596418136
-0.4692171198181802
0.11148976114930187
0.019054250271651488
0.8608201318288455
0.9930222086625375
-0.7230623424090783
-1.1369718918575196
0.5939569668583236
0.05550883717706109
1.9096735006442656
-0.06374128023653425
0.4377466077955139
3.013522037204764
1.2326940213258275
1.4622119066154602
1.1874225344790568
0.761994840004843
-0.9249437110268965
0.6197748201967884
0.6187783375142766
-0.7695954494693598
0.21109408625993936
0.3660748197513731
-0.2065731840464002
-1.0660121764180064
-0.20968127986526733
1.3715064485081447
-1.221776780604945
0.6832381424593099
1.4870491451347367
1.5683157247967647
-1.1659902616442923
-0.28016039782772084
-1.0188832631623521
0.5493871223585333
1.0966707497085322
-0.6865066870728505
3.3091996726507173
7.469377690406888
4.642669356474954
4.487175076589674
-1.3278507750194948
-1.4502627564578268
1.3322344755434028
-1.1926879031808195
0.8738666369345884
-0.6685137560035379
1.5510845280537298
0.4795862177482343
0.23951540626346451
1.4736496131047674
0.8854105940795944
1.7102087582666874
-2.335374075298981
-0.47623047270588453
-0.5251260784890712
-0.6764602979697885
-0.7398744949823858
-0.8605052803854358
1.394298867906254
-0.3407659487227893
-0.1966539736284485
0.18558032812909098
-0.8323359818203101
-0.45528427398580823
0.5308967837268942
-1.6853370170744209
1.6060372087510717
0.01598157902791033
0.7372167645785443
-0.577571909369811
0.4003763690480693
-0.15984549072246715
0.6692284681109909
0.6677310988208813
-2.478017157858475
0.7363755815218804
-0.2809687293344113
-1.0349106975005629
-1.2975480444797827
0.22585945680316294
-0.12892473781986247
0.06327165559931669
-1.4506098971570964
-0.2627945546871643
-0.659692939694658
0.34293976174020013
0.340193169448232
0.9762991188366513
0.8332049583022519
-1.037381389154274
3.7969032248079726
5.791014285923648
7.149916712777649
8.488070683348136
1.789844804975532
-1.6656190405627511
-2.0840100258373124
0.4884074376540703
0.5277748223562927
-0.8868124290203896
0.6411014103222402
-2.2748845559002158
-0.2895889604961208
-2.301032771686254
-0.7058277781656397
-0.7563846532232159
0.9503460493440716
-1.9144144219967676
-0.13938611851136273
-1.2088747631077053
-0.6736201763205685
1.205406048602479
-1.2032452908510873
-0.16424773520505215
0.505899504313201
1.2525098568832602
-0.49161931784034946
2.3732432071209413
-0.8302633931805905
0.5591989690089771
-0.7504351138091505
0.7165213083988744
0.017395857895984357
-1.4385013643184825
-0.9078930741295221
0.644041096636299
0.6779019103413592
1.1164809193995464
0.2888124277346562
-1.2954219191004923
-0.21194969912646994
-1.8810488230566238
-0.29642423724319644
-1.8424914702588813
0.1197076612364092
-0.32306321120282466
0.04922189379231434
-0.43446309198042177
0.07743741244556232
-0.19963323170069477
-0.24300982920262518
-1.1255369894558824
1.3938452755072799
-1.3180887045856648
6.599191203574463
5.064927358017419
2.9643278607068755
5.034065732165704
-0.20750404541457432
0.9098313754097974
-2.019669898315746
-1.228088883791219
0.8919640724541926
0.22872936928110887
1.5993137480265154
-1.257883516063102
-0.9500330089415887
1.9386243447674703
0.19587061648250553
-1.9408997943738688
0.9199986498491745
-1.7355014318603341
0.6817807145627699
-0.692562505429867
0.37542976408297224
1.7640894425900722
1.154991309155156
-0.9010496859200844
0.0520513448837866
0.41282027166905333
-0.5751468403247518
-0.5461340848438867
-0.00020482029225990517
0.4062031941052207
-0.20440003536015267
-0.20982808986775747
0.8493339211279362
-1.5240782638856976
2.0488624561173716
-0.13697935233127373
-0.0727182525641209
-1.3777426271908806
0.6702011455450625
0.5412539885003312
0.36126464941559555
-1.2380871017806885
0.0916941376249525
-0.8909595018713596
0.35731527678402025
-0.6235500821860056
-0.38214733137000206
0.9892846138983561
-1.3428350594855032
-0.010354141782384696
0.18423306583888333
-0.053391693450369426
0.20701075061710966
0.44964932136774527
4.498449160487202
4.9127684434876056
2.154777977519522
3.650673170492406
0.6445322593769495
0.9400032407783969
-0.5561994527313618
-0.2686672595986017
-0.7772075486106071
-1.0762140761885148
0.4393069167124638
-0.6354337089928994
-0.340180334966096
0.6495132405662316
0.05563895569247401
0.6004855899526077
-0.0571833729268344
2.1957263732739896
0.7844767770988232
-0.2153064576337957
0.19673408513573948
-0.4463547842310259
-0.2306878214253038
1.0120972067965806
-0.08521647046125706
0.11745393821393718
0.7477299187692301
1.6705572699008904
-1.1338470313619369
-0.263168517750378
0.056599650906247856
-1.0597728211014352
-0.64734425083665
-0.30622452461347316
1.7280458589746157
0.8931863765606363
-0.5690758870853524
0.5037095052555658
-1.0909275722082508
-0.25694756117833323
1.3263397718721976
2.09955759926428
-1.4206658081693186
0.2418396918926005
0.8735773523513255
-1.0650487973554226
1.4621751599971022
-0.04533741339945968
0.9268084640399372
-0.41073408603414946
-0.19068079444452513
1.3447451596897773
1.399414505392654
-1.0365838639143121
0.3945872930745583
6.7502405047658245
4.7945599037642035
6.216322576057981
0.3437041584537239
0.2666550879248917
0.2737542468537331
1.6371031812522079
1.031995806587689
-1.1579748633731102
-1.461080082414517
1.4087474469374528
-2.0680735920307383
-0.4648963576059757
-0.1641484587514747
-0.17612744253160856
1.8386236644480771
0.33138504047899414
0.05388508676464965
-0.2307755774553678
-2.060765940488802
0.1944613730853917
-0.6118257106217289
0.5908173744710691
1.0045880599929367
0.6702813918797429
1.2180765986141997
1.027734490790547
1.2459663604640139
-0.8143182028368462
-1.0089800310037418
-0.22380580144753215
-1.765336740299454
-0.610100791910944
0.3864564281199517
-0.033046220150233
-0.7168171232717482
-0.8528140292690736
-1.1708956574710057
-0.798041012833289
1.1178627103961563
1.546636310453103
-1.2045122076150419
0.686732525586593
-0.350341311258488
-0.424582902373236
0.9371055856985243
-1.2619086358646776
-1.9617104468956066
0.0017061902035825083
0.5870105212692722
-0.3547732596752731
-0.883837829541695
-0.5055257137669598
1.6061092004459214
4.929379745915511
3.340449511344206
5.782170253449185
-0.3739922449674691
-1.097622567955282
0.8899444395749299
-0.9530750604226653
3.1719755019263083
1.0961196592220066
-0.11904440211863565
-0.10207856088681999
-0.1519211530638465
1.0130596898737756
-0.40621961325639777
-1.007024622588455
1.8170454250629784
-1.4649341686045654
-0.5948294668332235
0.1787653521095691
0.5665841670772142
0.16094588110626407
-1.1283165676149471
-1.148273010748094
-0.8762576470702782
-0.521597290121964
-1.380569213794892
-2.0995563622076077
1.8355114644817063
0.630943457886555
-0.7521536863369771
0.21397224140550894
2.2429762685823733
-1.143099165086428
0.11537652763621191
-1.399402263901132
0.9540395231698915
0.43164985723584337
2.8085320599700974
0.7000748988501397
-0.2387316496809719
-0.38665855832638263
0.9555627539686742
1.1372461440824306
-1.544663195664266
-1.0584255073042446
-1.705235349306591
-0.1290456785290346
1.9265922586582338
1.5782170285306323
-0.23124851570879768
1.4558812691081031
-0.3118272047805326
-0.4303519443871768
2.7644048638123717
5.998946337260232
8.6706175027822
6.36611243352126
-0.9191870535375994
-1.0185129945228757
-1.5282667094484101
-0.7821625742651391
-1.7022481848733897
-0.3842592922871445
-1.2817427060632398
-0.1428691972691904
1.6023735333860734
0.21508791107393876
1.2638272240650588
-0.6409046134362666
-0.1405108602802827
1.7483589780637636
-0.33638528078241836
0.681733058216421
0.4910413174442406
-1.3628475529088098
-3.0679232856158665
-0.36787609071218363
0.5476803415819493
-1.1837909061898904
0.18423324125532653
-0.5885247018868018
1.00476041011578
-0.001280348254861563
-0.05920332135954043
0.02171713093788913
-0.13419603573341327
-0.8760859509355126
0.5785248602172035
-0.04275387525670466
0.42988849253751416
-0.7223733691352918
-0.1296357993899387
-0.16379123568486215
-0.6714192787571124
-2.1372448860987228
1.0803056668872315
-0.5586667153851933
0.19813231686935054
-1.6785769000033004
-0.2297179487218986
-1.539096557841499
0.22697331455837164
0.7362380123420345
-0.6690753963763181
0.27844062058997276
-0.5975308733671483
0.08389531478696079
-0.8448128865931182
0.2214541055117062
-0.3214079238283923
-0.2754523468310707
2.1406463876432458
-1.8940819710192844
-0.3296299446252293
0.047889035895019916
0.4337574303142051
0.6508207119548041
-0.08617080234624497
0.560178725175897
3.382167604232919
-0.5113170777935944
0.0866735087206422
-1.344466908696737
-1.0809969280734564
0.8994230505860791
-0.46205938469778896
0.014785781619958582
0.792329956346027
-0.1683915477967135
2.523962778553399
-0.4297883519241883
0.8013954026300242
-0.23700319317815133
-0.45499561108255204
0.14492990135949224
-1.2281467005622102
-0.9843777832376776
1.0664610783777908
-0.7367647074231027
0.8873314331532056
2.9120582638701182
5.949135746274905
3.571182014091626
4.527418725047644
3.96859672121306
2.9364866780794476
0.6955138916457971
3.9834320156728005
-0.0321587930166163
0.7321290981971433
0.23866701085857422
0.05031245217557445
-0.3689105985136861
-0.6889454898704201
-2.484867904797557
-1.6769574126229947
0.9574340221513823
1.9367446229879004
-0.9900963765156945
-0.8975298000723191
-0.8128227499853024
0.4305220359847671
1.6751700972101569
-0.46187779143926194
0.13713933956043367
-0.2988399491128293
-0.6072020239320263
-2.007841279708144
1.1929016841940405
-0.9154264052775077
0.849002668878124
0.7342115772367036
-0.46658821581554744
-0.6010355991410259
-0.01657794219223968
-0.8871524903283211
0.657091691568445
1.4520841774792506
1.318257458163738
0.16542361717572185
0.26578778952034093
-1.80209568600437
-0.13653943625902615
-0.7635379128085986
-1.3623468703010075
-0.5404870899082043
0.1563829446758332
1.1066825909431086
-1.701467679159467
-1.1670549702974577
-1.0972287344877942
-0.6975204372325797
-0.9201910395292607
0.02123864084807192
0.24501564070185122
-0.8294216791076642
0.11751580910817055
0.2531383789208156
-0.7932032677039954
-0.4044270483460103
-0.4239480364075031
0.16155096218537923
-3.150897295098833
1.018915462437064
-0.33814669242524553
1.8625456947049814
-0.5172079126860398
-0.9660431083079989
-1.2866021107884396
-0.9816726885145146
2.336041199937723
0.3613980614312182
-0.04001446353188651
0.8396299372916769
2.2897946628019237
0.05505009933167479
-0.41657840338297036
0.3163250221353259
-0.7854765868118083
-0.8085056035004802
0.5786282607318849
-0.18946389868776006
0.5186529574664617
-0.38477339792639076
0.15319605466177155
-0.5273673871218438
-0.24301990209149338
0.16440457170442613
2.0543755815353535
4.148305534352001
5.744942672747728
3.701711087361727
6.2488144769173966
0.213234545135231
0.6327098827909139
3.020005437236167
-0.4693830577598699
-0.9351561679796945
1.1725267724458157
-1.010452271859312
0.21088700608977023
-2.1225188912189563
2.5640115733896316
0.2316402368812005
-0.3507863414691169
-2.8998069309925967
-1.8450677294371687
-1.2294394592074787
0.7347488131135698
-1.5808781837452124
-2.7691955941555144
-0.12103002340661995
0.2340083564416655
1.7739490774397821
0.4761618594686674
0.016271912202745042
-2.8643987816613414
-0.9574028038157067
-0.68244524534213
-1.235210619000109
-0.6242113347376207
0.9498014854617518
0.6850396298050417
0.10786011345900581
-0.4849423868485534
-1.8997301965104092
-0.8304473030746143
-1.5992724921679904
-0.9849040295723555
2.3256764806733625
0.16849375598231672
-0.9220268624362515
0.04681296952756939
-0.838973139015921
1.3237427142172937
0.7895245751923031
-1.7256989164988197
1.0337505434182608
0.22263294634092012
0.3317028347074645
-0.8105105202678987
1.1789435641401749
0.09709277332605867
0.4616049290285883
1.2261132487184006
-0.25670484848927466
1.531989049701616
1.766346140714838
-0.27597889815726345
0.6942118023214485
0.49692951694344784
0.5145177819308148
1.1283849062540863
-1.1836414074762667
-3.27295084233769
-0.26368783604853097
0.6021127011702913
1.9400170092617635
-0.957431735571131
-1.2183239649699804
-1.4136716302470598
-0.7863018076193514
1.2710630414769737
-1.3988718392552693
-1.1445621514006556
0.17471642213647326
0.3092212177924278
-0.5767444835079453
-2.0785143343121293
1.0494975053876248
-0.8085250917874768
-1.7511246848429696
0.3871539500658539
0.675660482566282
-0.3920393257551687
-0.5284241427795997
1.150724697744399
3.3805328912543953
2.7948186512515623
2.9457611453990764
5.4011452494197645
0.057985136808756554
2.081872825814566
0.995538742654863
-0.6522465855196176
2.2766218001418554
0.44763070463736243
-0.431508141683085
0.5128746272036097
-0.6824361884825781
0.8932819431425157
0.6806247480657117
-0.6895833727484877
-1.567312395997897
-1.540940375458721
0.42297653097833365
-1.9670890089639985
-0.036748641220062106
0.3010110732563134
-1.5216250334476198
0.2526935808815859
-1.4278209156090829
-1.5317782647774552
-0.3539200033135634
-0.07202617494831626
0.39939472601600223
0.3424482775031677
2.1862303189771506
-0.28501301663784273
0.14688460344178883
-0.5892873839784004
1.708624857665185
-0.4495470848815696
-0.7387493287983424
-0.7469284522700489
1.3825288249802021
0.2288986551672648
0.5848139950008424
-2.0927699119844
-0.08832607864710351
-1.3700530113170633
-0.15197540155697403
-0.5885029066604683
-1.2226269931086264
0.589685179863472
0.1766655221812079
-0.40941062429343755
-0.3618088495545684
-0.04950344602359344
-1.0548887439709567
1.4260100438384928
-0.26914050575288556
1.046746071587673
-1.2928397349794172
-0.49045121206040343
-1.025726823950717
0.6058696165073316
-0.20945682046763897
1.742592153124646
0.05116806286654346
-1.2670537268697455
0.45974486455989394
0.6078394717074614
-1.1957019116209966
-0.9808763251967694
-0.9119711271428521
0.34663581389192055
-0.05647173043404219
2.502675016245708
-0.9307820642241592
-1.2271113540122642
0.14437799087131514
2.36102446604128
0.16311412065326825
-0.00322928756753417
2.026401333237157
-0.613464736298576
4.571653504232188
2.00696130897183
1.6607521219972285
0.09150135514375246
0.09441544744138458
0.6206307457083029
-0.249532449044837
3.5326055771541696
2.4522827571310533
5.204443712585872
3.3658476336187153
3.3412453783599814
-0.9113358450853778
0.8065317545551276
0.40857032441935204
0.16410187930636427
0.5340137251386596
-0.996004359288744
1.6359950141805437
0.9991071112289613
0.2439543694791485
-0.7308368833699532
-0.42074068095220385
-0.8419222910464782
-1.545786242129282
-0.4448622368823705
-0.4700211193582383
-0.13194876454890858
-0.31744432668027045
0.1441721947802565
-0.2915296027585855
1.2181906774711613
-0.36376266482952097
-3.659664907930002
-1.5707996404276279
-0.44593996087662746
-2.387922265266781
-0.9946665917993458
-0.40230950208067173
-0.3824719474667878
0.4126523541848045
1.405347104592892
0.5252123296959068
0.6628169206553585
1.0582430617266678
-1.7230734149147109
-1.7850107688441446
0.5284205709381874
1.367876665574481
0.8235540646626094
-2.13556279980356
-1.3834464761052725
0.8021346426099588
0.3379414345200372
-0.12135337079459083
-0.745481433802056
-0.407143822954698
0.9303955424124938
2.1870494466969053
-0.05617394707231804
0.16028942792523238
-1.0955453784487497
-1.771471855708318
-2.040144199852919
-1.4742018502977938
-0.25429611445144096
0.7859572921893947
-0.6699505031115744
1.923935323006444
-0.6849058036140752
-2.0435014620744854
-0.9387655771334629
-0.39656568318713237
0.37384382614845085
1.66131620673816
0.05759364631409347
-0.6385451337338008
0.8806307887358358
0.33650051675565296
-3.239427172683163
0.9634547859087117
-0.8264918900520561
-2.1288338342331024
0.18576136074171168
2.200042264996152
0.05123921721196473
0.08274069277264182
0.3163755866392598
2.791882501370358
0.37077876992720216
1.6752273675711353
-0.2680459213805529
-0.6469399026652717
1.6859050913068017
-1.5553048093767967
2.354747442630566
3.259228639770631
3.4331903486818334
3.868037369141176
1.301359313374497
0.8226723372596383
1.6662920606665328
0.7186494159011263
-0.45978653240832684
3.819381265014676
-1.8346947642591163
0.1126349567574203
-0.036299595333406154
-0.5905785719855192
-1.5685291616046704
-0.7600759844656781
-1.8412761345279876
-1.708021290196994
-0.564392822706878
0.2586473294012316
1.5533383059518253
0.6877918617203962
-1.2752151875596216
0.07534687590618777
-0.2838503068191112
-0.34556722831058695
1.7900165907017531
1.3847384556262978
1.4351434553509843
-4.119996374459522
0.4201307890385432
0.8439971945049425
0.5003536121226108
-0.39287181421305867
2.196159352072747
0.13237541157226015
0.4622937788204555
-1.041311131612046
0.6714650592639937
-0.3476694394028564
0.24141361853444754
0.495525506856085
1.7673737333451722
0.3639675219936162
0.16362770131237647
1.055516395911087
-0.29996631796146395
-2.5241822203627424
-0.5775030296876691
-2.063526874255388
-0.7616180484815062
1.4271830745125151
-1.1592002625477456
-1.4066460978000856
-0.20099935472366395
0.17799970968686676
-0.434608483685217
1.5723378092112816
-1.7568734366472458
0.029941481643196044
0.6696345964980082
-2.448550499146701
0.5388133762682249
-1.5659315871677404
1.0562210372432683
-0.8962114782439641
-0.2135474284685061
2.211718587613233
-1.8552084224686887
-0.12825573921615271
1.9245158200226589
1.8718782288973317
2.2200495338253234
-0.9023715266396026
-0.1904543493266394
0.11021789265278198
-0.4094099662665419
-1.815511286505771
-1.6103306275274893
-0.5866975409206637
-0.6195976774415848
-0.4563206617551634
-1.4095820198410678
0.8478391790381394
0.4346950453920364
-1.5071935160101448
0.5917773156083336
0.7232131108424203
0.6978813017656409
3.3567314186783777
2.1735656179046403
4.955393160854362
3.032251990246059
1.1408377333470547
0.5145804276865947
0.868282542474411
0.8266791625446437
1.3877205621862196
-2.203453771194497
-1.60582986720684
-1.0634449380427098
-1.9029817627259467
-0.4338576925816683
-1.0615541693229882
-1.4788540814579931
0.6608943480227778
-1.9747264636834216
-0.41323470650031946
-2.2463152304838534
0.6143674113477778
-0.729452580167034
-1.0498426801272225
-0.0067634280068561425
0.16030585957785193
0.46686105792058896
-1.1263213882070195
0.17389027195506984
-1.7114065809104106
-2.190385718090918
0.2528188476312358
-0.6806089618476576
0.1945483369404407
-0.017801040241281013
-0.26437376705830173
1.2561246201279392
-0.6006708514611446
0.4832737913121502
0.2250427512221478
0.29040960880550365
-0.34493429440248174
0.12284873741275038
-0.592748613342893
-0.916971036656162
-0.6816132678198388
-0.17919991225969129
1.7172848121895248
-1.9414801203018228
1.5180909450493094
-0.5942985033021494
-0.6634452388402114
-0.6103124441748001
-0.11271387969476299
-1.337533422853898
0.4170836467931893
2.2821912891423093
-1.534128214137717
-0.07397656863164082
-0.811598591755165
0.4182752813221271
1.1721500300099776
-0.5885582501951706
0.6688018843428508
2.7299431950058266
1.738017862198467
-0.5066910445381073
0.6415619482323431
-0.29527253470980197
-0.6221974222896524
1.551463607898616
1.3027985704269667
1.1850230989101969
0.8048000204645347
0.7861631380984183
-1.884797381437647
0.32327632583259414
-1.7483492591874845
0.6283724247245183
-1.8047257670690164
-2.040499080627984
-1.0914456393068876
-1.7605042971551992
-1.4752247347921859
-2.1730962584285654
1.366543059486818
-1.197889201930055
1.098725870019314
-1.1196164932945187
0.8332067421962694
2.3561285445271682
2.854772831467825
2.1413525893029735
0.0804293216867189
0.6476102690456894
2.2418309186728744
0.335359137051128
0.8877582670239184
-1.585429894622803
-1.3780976326765702
0.4938913252683795
0.4696674535472767
0.4782666257989374
-0.5161447835921483
-2.7153632427807937
-1.5103191800398732
-0.5741234000866646
-0.43168912432106293
0.588729789954778
0.9407324649755534
-1.2850421152846618
1.1414261225577071
0.9497580954340323
1.6942024930542618
0.09939475136296794
1.8586516244675313
-1.1404384770967633
-0.07526916468390787
-0.8018337022163733
-1.3683590111649655
0.19751858365595354
-0.2452078537630452
0.43310757303592173
0.5612536540522011
0.8074002414461611
0.5686027061905072
2.808993050660122
-0.42420579423009647
-1.1423991235229722
-2.26531691302117
-0.7000260593764696
-1.0314708058843036
0.025306478683840967
0.011199912285438374
-1.2324901625090048
-1.455672935779142
2.0478625425042365
-1.1575692554236783
1.4569035444523264
0.9629422891484702
-0.33413450073840045
-1.7298453888460288
0.5948315046700445
-1.4622890571998988
0.866921369009352
-1.7629603528634403
3.200747773505042
-0.22356826114201053
-0.9128021461420525
0.6021677626416194
1.1701816388870985
-0.5798282729525372
-0.10009333664282016
0.35028604155640947
2.0596054596154065
-0.7927521113076758
1.2913690680063215
-1.5315569444878216
-0.5176922873469946
0.16980692584450657
0.5513911669200449
-1.7532953432589762
-2.7392586079567067
-0.6826970161209965
-0.5267757588740103
-2.095397386184665
-0.11149892915529391
-1.23944904488729
2.560770166122485
-1.3805086621314482
1.386322875157453
-1.4386776234415872
-0.16119161089793038
-1.6372963517724555
2.289429859298023
-0.4374904502891387
1.0977385221530143
3.199489190199005
3.407910030746588
3.8353752917889876
2.552683473102631
4.713124580709552
-0.9057909720015925
1.1046458546990066
2.5888768224444956
1.1321132513791567
0.5236670610821813
0.13971057858269187
-1.8851621533451453
-0.8822236955997103
0.4363251555942792
-0.22514167574170518
0.3699148471971122
0.1929847455239091
-0.30453417090679935
0.38085888766678316
0.8684300202860994
1.0580999511254525
-0.36886557011628734
-1.4446326333035424
-0.6332451538189174
2.6977263591565066
0.2886038555950925
-0.5445154258554967
0.2447048383924808
-0.305737857892565
0.6350678008279259
0.5753214070159054
0.4042901798097822
0.9456225126410112
0.5390099521225219
-1.6490170201981798
1.7058114174425318
1.3035522652893259
0.5756358893204048
-0.5883732076568702
-0.008283082474847742
-0.7275171752968821
1.7295781732727538
0.3552516393810455
-1.2902618915194146
-0.029157765751722575
-0.5799766327192984
0.9134824062594686
-1.7448264311272026
0.946142162850556
0.7057000675126888
0.9190186106018481
-0.9627700242521451
-1.8163168877065123
-0.24000008591721325
-0.15193457133341626
1.439726163291121
1.847522155521986
2.206727879620024
-0.8265235432247467
-0.14197733410261798
-0.13375507056757224
0.3894612541843408
0.3462192400866828
3.1157344729895744
-1.3106735253392534
0.34392781314812154
0.3685281101589395
1.8148499920574994
-0.10546677428508344
1.1512402754799633
1.3616923396914986
-1.1361678441504242
-0.3948940229301386
1.7378690187526158
1.9629890738210076
-0.9722737116557653
2.457991759430532
2.3530652933677714
-0.35356006118268524
1.1701475836348985
0.7153498369328156
-1.390244159004511
-0.574738726703319
-0.9824718067804337
-0.7468034379624018
-0.3385919295350901
2.48818243649811
2.4301184636254054
5.733606247837501
5.398617423876508
7.145347866859577
2.950299759693059
-0.44846318055316037
2.626694981661491
1.6679351769560997
2.6951309635835665
2.6886183575343874
-2.9547081893253253
-0.3597438109925828
-1.2055697700871235
-1.3691193333606413
-0.5906736935143915
1.2052726541207086
0.8734838031340882
0.16615453070112723
0.8821815672168125
0.12387776722474145
0.9544379135583215
-0.6967774050909663
-1.0329040561477503
2.761618481326753
-0.7803619855439574
0.284003137890556
-0.4655848761537926
1.8535077093314765
-0.15605635967159037
0.2577774960757072
0.8441253380958956
-1.3590754561111917
0.2718720353786147
-1.3631617314474345
1.3951368840558322
-0.24175379153676413
-3.5817209292562477
-1.5228372102992476
0.3834471936117904
1.398392848333694
-0.5884394697804993
0.5931702509613435
0.5416636333954895
1.4887057166560613
0.8237760457549806
-1.4137411920086345
1.3979721228678923
-1.8818855173927687
-0.4521561726270916
1.0145395661313048
-0.725922305802529
0.7518793906395818
1.1153318507566063
-0.9321918844938142
0.9397131641625932
-0.8570424954246966
0.27119417465572715
1.6026048458350814
1.5232313245825706
-0.9936564679780511
-1.6759273605300522
0.7142649997033719
2.0033167663293563
0.242880894508412
2.192346894235851
0.41105012789145495
0.29447708529152494
0.9123105134538742
-0.8257782154461645
0.46098236600843234
-2.1870461085796467
-0.06696817406199126
1.4214297219960024
-0.4221001074187394
1.391985556299709
0.016796696788536847
-0.26627632751786845
-1.280116762425658
0.6711392253191085
-1.0367381140875742
0.3060591577242022
-2.3957853702926037
1.7816783200540716
-0.7476324858328754
-1.27901563059792
0.5436425563880736
-0.7942269482119622
-0.838289471791053
1.9506547921674657
2.3097256312265517
2.4602096490205465
6.054671993024145
1.6574527172153635
0.29697822267865787
1.375585913471837
2.246084298743631
4.498411891793787
2.3127519821985025
-1.7596991850425252
1.6983224311724463
-1.3648884740374911
-0.702938345214156
-1.4511828416471289
0.764416179616008
-1.502902469963917
0.47233627343730805
-0.8118645131384532
-1.1947598882966886
1.5590540467191234
-1.2653302048640769
-0.9152287090870598
0.7248020106180104
0.5238817719084742
-1.1914737076445143
-1.988179955488301
0.27678657126298184
-0.7184901474443091
1.974873078036916
0.5602666800869286
0.03509880025432713
0.7347276226488194
-0.2689553867098928
0.2614629649536974
1.0183212071729568