0.9756299213835572
3.031267646572182
5.549968467790841
6.76760255050666
4.225535250241479
2.209790579386744
0.33484061587372765
2.5015543479924123
0.02983310941845585
1.720375385323455
-0.32048363930593526
-0.7994391287061106
-1.261463530109057
-0.4659933926717446
-0.7181869841703472
-2.5881938503836164
-1.0937092666188037
-1.2099653500131282
-1.2155449789938464
-1.0098725609946029
0.39296199992978054
0.6331603716353038
0.22090837273326291
-0.7290074173997365
0.22300208166388308
0.6912773531721755
-0.692838642523506
-0.2781342647354621
1.3419971160503166
-0.5723699165096575
0.7188871596808953
0.5743925588728123
0.9755026571941738
1.072007721101688
0.449342815405713
-0.2778930087525718
-0.7509433905732352
0.31299096966137185
-0.9238182948159606
0.5819675700116079
0.2627704524115665
-0.019721615207501403
-0.41925128329878725
0.5956096393405368
-1.604931976321771
-0.34902645422626905
-1.7079578996590898
-0.6837915608814212
-0.16074440266283196
-0.8953012551869233
-0.8689904786107173
-0.3096711254632221
1.2444947953489724
0.6939323222148571
1.8387644303854458
0.06634393871333838
1.8242970366613145
-1.1759826437234815
1.9511487770819045
-2.039182872392526
1.551008386734615
0.6937002065013824
-0.3116734547670181
0.004695522745767483
-0.5630498417675444
0.4556819983792504
0.26815146362937947
-1.8975065099903805
0.3941386096313669
-0.044138545317539996
-1.0449957757191846
0.04745427975005362
0.13565274896110618
1.07577716839145
3.3672649283167733
2.634181828181131
4.007293125816781
2.778577283881125
2.029150308973213
3.820574510787921
1.9108821188704608
1.580295940222323
2.489940450911011
-0.4834932909310148
-0.22771262040326767
-0.22740622721505915
-0.17174594006356247
-0.43445474222673575
-2.126048798712113
0.09462511531542746
1.8560993671764257
-0.43237880467090534
-1.1132551829192807
-0.7300231698744382
0.7608874840006556
1.0276833290135596
0.019825744421791303
-1.4506522538110147
-1.1306333165953135
0.42412444103161784
0.12493211310490053
1.0161498483123947
0.7945177061381306
1.3791854638787657
-0.8518163153336586
-0.9658350689827402
1.136181914891945
0.39786311089714754
0.18201391990154278
1.0686885932311148
1.0061961837069022
-2.2712163395687326
-0.8300391891188152
-0.5716577974609455
-1.2218522886926777
0.13266500350699625
0.9430460729133447
1.6913093615173926
0.7333720595652921
0.7546715762025145
-1.1830658501451838
2.6402567096102265
0.5319626810471858
0.7825510731864548
-1.866516199419558
0.2970308269205907
0.7304378020142629
1.0446117810520548
-0.7117014485672246
0.7491618384727978
0.13251344959929034
-1.4611819842621927
2.535899990790841
0.7733557036565981
0.9443094983416473
-0.2113812340327061
1.8986211148228802
-1.0048775273286872
2.956616108900595
0.21853097597699225
1.0328229942811886
0.24120251156924133
-0.8682564698489859
0.32146660120294224
0.785797373583383
-1.1569305808067132
0.8695914464968296
0.493849879582457
-1.0175172864591824
0.4278354889481868
1.2598073452348817
2.249219022976963
4.458263879161312
3.52406971438967
5.477157855268929
-0.499997879287378
1.3673612541155333
0.14776678181765124
2.3080869124413046
0.013069184077553697
-0.8348743471032878
-0.5352418617763874
-0.5689353430592908
0.0033580128827472855
0.47772801731011727
-0.39355773201598054
-3.1482547827512604
0.6351135431827698
0.05520147097198014
2.9386794665400635
0.4896344687338783
1.2104406210579464
-0.2967949230441402
0.3591899311088548
-0.1830853471677143
-1.3118471939297942
-0.47031249464950015
0.6047628061725397
1.0024749011379979
0.6279141356626879
3.354406524791045
-0.13924267647616495
-0.8224418398889981
3.3272052528566394
1.8582618279056766
-1.1007716379702988
-0.21520046477463114
1.2413553335876357
0.23993530096712307
1.0425863716795334
0.7538027769584568
-0.10094832476769233
0.2643086926930348
1.3516423784965057
0.12781300315235944
1.070734552798896
0.29058508389344173
1.9304756933702303
1.7019352262989165
-0.47011327906724143
-0.16542262121734028
1.5205856185429343
-0.96654467799031
-1.9094238603181988
-0.4403588006306714
1.6831378108139048
0.12980403920175798
-0.33257241810784943
-0.19461773002946697
0.8052294847193412
-1.038382561041818
0.6357326273989264
0.5406897928793271
0.545731647134579
-0.5445610102177392
-0.9489235880583583
0.21640848004735677
-0.8824245322057381
0.7469527466673807
0.3955713305889748
1.6233379940053567
-0.04662777539730101
-0.048784835201264976
1.3649660669097923
0.6395879468445254
1.1374940766486334
3.9226157248384306
6.208269463300607
3.917967817514624
3.3759804487714518
1.0916148725733759
0.4123850186628009
1.9701388421931414
2.435164208973061
1.2831855672648875
0.7545665737018731
-0.8240434934356871
-1.0441082301365874
-3.450929255934593
-0.19100610519470818
0.6237801676415257
0.10126295079272885
-1.1602201732552764
-1.9372657563914415
0.7680741511480438
-0.360297683389091
0.006979519592089978
0.11426416482921953
1.5975745397490586
1.9526397895885292
1.525708219640253
-0.2978681901899489
-0.030073801369775555
1.4323949199170078
-0.73096538592017
1.5379164062050406
-1.6692488500769493
-0.08850640948901511
-0.06821305774585773
1.4089781831057921
1.6975757137251954
-2.0838915813380914
0.36369496662446216
1.0899588424330386
0.8337174598484298
0.12365889838964772
-0.423187363945535
1.2774340465721112
-0.1979006156058861
0.10401273480996712
0.33049669048338426
1.2391316763885691
1.2214357367651134
0.8150400127278771
-0.8994995037332305
-1.3868036731617528
-0.339988738750742
0.7443427577169384
1.151745825477227
-3.0783894664091056
-1.1484350475100802
-1.4892874305332624
0.5274083381220659
-0.9828785397787672
0.7299890825415758
0.04934825820725978
-0.40880750354596684
1.6382417333543433
0.06554972053157529
0.6433063177432699
1.4337395569486295
2.236106304889841
1.1291921529431965
-1.6607566715555464
-1.7903326465172271
-0.32694016947405036
-2.568753420404044
0.629640045556366
0.8308587028364585
1.3871780784643257
-0.7605759815805154
3.1443705080491524
3.94711814325378
5.96884062209906
5.474546423256742
-0.2596281513258367
2.6976043411859836
1.5647034304868637
1.8026245989193708
3.313130400834287
-3.4285505422361955
-1.7039919409068034
-0.4719804669221867
-1.2124287589926412
1.0483740557916124
-1.4442293876307715
-0.2775037284090464
-0.631185648975001
1.616733410180136
-1.343510984860696
2.1126526658866407
1.4314322652559621
-0.26448509932991693
-1.3941137632335159
1.1093304897163536
0.2535078916394182
0.023013462786607514
2.1543680777091696
0.9918133081632446
-1.0761903489322164
-1.0603572602967548
-0.24832804708667322
1.3464702860406796
1.1849119128030976
1.1804162399509952
0.18896152190628723
-1.1552130572516381
2.6786721846049115
1.1138506231953995
0.02976205471319157
0.10841220443912172
0.053058175008048616
-1.2159023477042221
-0.09942895045185732
1.4458869645170456
-0.7376279515091613
-1.4660659651589436
-1.1253950761891713
-0.9664160383488178
0.196479920271988
-0.7635320427554141
-0.7292365258115008
-0.9579437187825272
1.4025525408844897
2.396685352610566
1.6665156765661582
0.17141492369654995
1.7014320725148235
-2.0506551245271094
-0.45294400798648143
-3.0876922558429127
0.44549704343723506
-0.3353933315137925
-1.2255376401185856
1.719243421785587
1.324232117946471
-0.7337146953216169
-1.9228133658896538
0.6736202325576782
-0.7150504792350011
-1.191007940142422
0.09513848238087785
1.0323483459735976
-0.4048224204656155
-0.6243640053422833
-0.7391615057467182
3.045190419578689
0.9282600206861884
3.8655987648827272
3.70126001483995
1.4682409214737497
0.6368426791165699
0.9289772674998509
-0.6542075301292735
0.8309607338624477
0.1045083358516683
-0.0004127295032026416
1.9403817254029376
-1.0238293686447517
-1.0665311079700528
-0.3336260994338958
0.026812380472050965
-1.8168001901017354
-1.4453110912220086
-0.766903499663319
2.004674639063834
-0.42768360537255845
-0.4747503123127044
0.2509892157829259
-0.9308161555907071
0.1914667004350062
1.7430746685226184
0.7596203836953983
1.012383276031125
0.1792314973818543
0.47243840779611507
0.8845837473221279
0.8602704294961301
-1.2345995364922953
1.3208206323526748
0.1648894475426841
0.40576395341074717
-0.7766417419502198
-0.2882619628871026
0.6094797406657844
0.211459768462178
-0.2670080259588625
0.45655508103253073
0.3606118650715686
1.0246616196306142
0.6079479688132052
-1.5010080888358048
-0.15555552819067153
0.014163825543189512
-0.5407074918795777
0.4332862010812395
-0.031231417581034537
2.9254880346357504
-2.2429469833997437
-0.68130384746436
3.026080980858269
-1.1691582939386986
-0.05937548460625108
0.3774439719501538
0.559557263821602
-0.6418257219318426
-0.8874394591132565
1.0904803311896591
0.2504936663497589
0.16421945823673983
1.5126420186781713
1.0141470281621352
0.883293658213447
-0.564624634522531
-1.227474871255238
1.4486717103258786
0.6915110696918947
-0.012381573037208993
0.3316202490440522
-1.6248433370948852
1.1674135430656543
4.393452996120012
3.5114206312895115
3.3251015867130826
3.565718648022726
0.30373578648024163
0.98254055468269
0.861248556508986
2.2520863031411293
1.1960874545857942
-1.872388186477632
0.5458752929171152
-0.015859641481370257
-0.8164906828563361
-0.17538065612752385
-0.8372854078143792
-1.0435857563116024
0.4457233571583681
0.25261071946446445
-1.0187126815035186
2.0375175612851653
-0.8890169675369024
0.4905750492949606
-1.3173372603481137
0.6095542405424732
1.6011015113558047
0.44239295404227263
-1.592383369738307
-1.66436685408317
0.4437675770547193
0.7054257558768964
-0.6096459504463307
0.4409374473723178
-0.9904298028437867
-0.32586776403003503
-1.0568084428037778
0.5471406710325027
0.04954859076496632
1.0650886559174921
-2.528450697037894
0.553540431394212
-1.1373880133811327
0.01680694814817274
0.6111616237017149
1.0597705981014842
1.159483423750045
-1.1641742245676854
0.630502116887619
-1.4600556047889601
-1.0598558233155375
1.8664839175875048
1.5415726583936227
-1.5542316777641012
-0.7634598010675971
-1.4642714559714145
0.6317697938095115
1.0771883051661186
-1.2213448593741865
0.380467896348514
-0.6510849295655468
-1.4989283644085074
-1.0156228962368872
1.2831111858820865
-0.762697703255834
0.5379835211736193
-0.5259092575809095
1.3994381936337126
0.7319780989743554
1.4905476676863199
-0.47733070754322515
0.6641574002087467
-0.08172065517699906
-1.0965875383623032
-0.927115368559591
0.5861510001674874
-0.3668567725691185
4.230230184740028
3.4862051563360477
5.117338978817046
3.2554298145362415
-0.26872735763363115
0.19100892691035362
0.5215370793974733
-0.7619604191520728
-0.40609505128614776
0.8970897877781335
-1.0149864263588524
0.45832475993905175
-0.26816093181697626
-0.9750711988803507
-0.42054540944432045
-0.7998158331775728
-0.10009210973655525
-0.26440702229524016
1.4598594773124351
0.297653945981142
1.3316528319882477
-0.3998521618952509
1.5379411449984852
-0.19853774853638173
-1.6507517718073972
0.1556860853868121
0.1533692750827153
-0.8443081454339765
0.8284237578157264
-0.7816714093507859
0.5440504522544459
-0.9613171888943312
0.8385195396600629
-1.527308285758415
-0.4629388118656733
-1.218007962362532
-1.2307340664486186
-0.8970317458877534
0.20994488215046447
0.9048805889423222
-0.1324373934913089
0.6620943680539824
0.4194991290100737
1.102463018793019
-0.08728830995754167
-0.1952535199287314
-0.34381044669940786
-0.1400648761858519
2.1544426037844056
0.006222483213773333
-1.0030180463803837
0.4400576095029171
0.6059120411637215
-0.584001756292681
-0.21856024772823998
-0.5364498653546472
-0.3589516576024902
-1.245440307629515
0.11650288721353921
0.03905770517322271
-0.12284979041956001
0.02575564885908721
-0.39548268762442346
0.6304014708649057
-0.7045856191901745
-0.1392608754990865
0.4746621709194693
-0.5134610120092112
-0.561700653047102
-0.5697408279755897
0.4361355570021075
0.3231493958658349
0.17419168194658174
-1.2002564705333216
0.3840676948334118
2.9339799387539034
2.3158744828355475
2.2381806951753394
2.14978635997085
0.5527817900700819
2.4194552702551917
1.0441672193637714
1.258603726114138
0.2158578143724058
-0.5131215562955461
-0.5735471765710489
-0.2793949277840365
-0.9372750390098217
-0.33362361755584624
0.4121569180818482
0.020468707940463238
-0.21107764077227495
-0.5819031825650228
0.060004610739294195
0.5549084423369479
-0.04909370204002547
-1.3483249925008405
0.31308109126215644
0.7829744078737011
-0.035444187364646884
0.22119555041999495
0.42192305774847594
-0.5264646525110213
-0.23470411297207686
1.025148040601118
-0.2607378388721586
1.2096275750713248
0.457665673526297
-0.07963107065507505
0.7431935028417935
0.2419134027897477
0.261974893471263
-0.101776201251571
0.6369217083584058
0.3793251258418455
-1.6400023570287945
-0.6144741221616938
-0.3700597709759407
-1.1962523553064863
0.7771545383451995
0.14657633424740452
-0.01554319231518314
-0.27604705682901454
0.21003649353603804
0.9142128757239171
0.7703874781747317
-0.3844823644589223
0.38931568583473986
-0.7745027099843524
-0.6627154815395211
-0.8084814622163387
0.8337593748202505
0.9814035736829708
-0.047158715365216486
0.8779107718350817
0.38926015770074673
0.43675165828024365
0.18105583242785628
0.19896572216853425
-0.7964073387526546
-0.5644094005341758
0.2992684758688377
-0.7327144094360523
-1.0218129428115665
-0.4082108248389278
0.07223470448130304
0.09677371506928736
-0.035373417071818444
-0.6738384461150776
1.8782479595884145
1.2006397780140556
1.6998179362309551
2.810782201904108
3.633991997978973
-0.39750131308333736
0.34845941441084827
0.40765241356106985
0.2386565225924974
1.0380843249295244
-0.5434003207419418
0.5385556370243639
0.37107945138220083
0.03836063645822907
0.36409395486790275
-0.4397569764802354
1.8453355634823247
-0.36389041596169275
-0.6898715025825611
0.3176218587675492
-0.010212380096654178
-0.6729437807364487
0.14612255678928412
0.3169482757955768
-0.2856735082561109
-0.41909934571233737
-0.1001159004667817
-1.454848921902515
0.41722890959054965
-0.5294059774048426
-0.49909582278047193
-1.2987436410190258
0.14573497154960996
-0.8619731646118255
0.1991109919512089
0.5990799617954952
1.475566225455684
0.11707850027784517
-1.3553564857073694
0.16893672479287042
-0.4031910377204045
0.8731755004676943
0.719276134811806
0.7664393713884343
-0.8163692821004896
-0.8301376821306853
0.4054579909050952
-0.5141094554483943
-0.06483251429757808
-0.02183019549353088
0.04072501893673358
0.8635643396090044
-0.45985382717388024
-0.21692286229197394
0.24109225908345266
0.2486825206475173
0.3726994431055646
0.6401716935906981
-0.1297055181113333
-0.272645306432342
-0.032277586541699266
1.312543206089229
-0.8137892521562431
0.08606082816709337
0.13732589310790994
0.0414831881033218
1.1943296607525578
1.2297634695103854
1.3112187003884421
-0.7924920781258826
-0.034229556713396725
-0.43070580785556806
0.32443725435441007
-0.18884598402139513
-0.4852603380435347
0.674838084171433
2.295539349010063
2.4287690369220485
2.2081129141585385
1.9014990654787267
-0.13232917550271
-0.05009826296827968
0.6608612325206452
0.42951318986463305
0.42335762597829973
0.3587237704780485
-0.7152531884620887
-1.1732225013456745
-0.5630165119946469
-1.0256558340378825
-1.5123740618410275
0.1972589851327088
-0.2609305914606887
-0.8913966020179619
0.10416465664157497
0.12942124170792818
0.8827303402627097
0.5503832419467517
-0.2746908547801534
-0.5256076121912415
-0.9213052703492741
0.9643772220909061
0.9658022758313998
-0.973121077353249
0.44625855180648843
0.8266044435562272
1.1515844174679448
-0.1900362346252666
0.14228328515877875
-0.5592190236736733
0.28981034443398646
-0.7075145262394668
-0.06708015100789277
0.8345879484508805
0.15889251926258097
0.07353683539553679
-1.2850970986133168
-0.3002490582755744
-0.4872145417927753
0.4265870529337498
0.25276188317560644
0.0759953814951792
0.4164794194611281
-0.5560946485871368
-0.6842971207810815
0.9989955478894185
0.7706887717542967
-0.1388966545483578
-0.08081873155473251
0.06525102677006833
0.1082248208509286
0.2836777652534558
0.952531726558117
-0.2630507885888136
-0.9960874543846119
1.4293913697753848
0.5325400679311749
0.25111642833552444
-0.6950779487871926
0.6749305084246137
-0.2768026086429056
0.6325088353003083
-0.625950022033519
-0.6772116975143997
0.6605542119829895
0.705072054189171
0.28848866016939767
-0.491984993836895
-0.08738318633110922
-0.7599910389035989
1.41749933713165
1.874166234718662
1.2696778837451066
2.3835874065833638
1.9533253440792642
0.07997747750836426
1.3532317725371221
2.717342688214496
1.5727148160750888
2.057513322511818
0.5357093143351996
-1.3335093270055018
-0.39616101760565786
-1.2157515309790745
-0.21536130094201844
1.136708759834482
-0.1065076060386891
0.517773027629816
-0.3387184794642608
-0.9817499584789265
-0.07819813177939317
-0.914440288207762
1.1465934293515923
-0.8786980168949461
-0.5921690551518378
0.38337747213216056
0.17387802735377575
-0.315549145920922
1.670547420334018
-0.6435586299437214
-0.6975653490592177
-0.05159257110912091
-0.9371157078897039
-1.4932227990300473
-1.4164202629115097
0.18261412918938016
0.13113264558519522
-0.16857694308351845
-0.27024968956010076
-0.0456671911032179
1.2194657166675675
1.163656282113325
-1.794716822469062
0.18369131485362428
-2.461864804755615
-0.3512915349414212
-0.2891909855240581
2.007354237822557
1.4420246058475534
0.8927305495170459
-2.4308592342406627
1.4000008793502667
-0.7062880137346105
-0.09818244462517725
1.696293123014312
-1.0043746670839269
1.9370240195397166
0.12688294428627916
0.0679387975347972
0.05526089875812544
-1.1214943370824024
0.17658146630050905
0.08472738018126537
-0.049522250206656515
-0.5405394671658477
-0.01650204889225925
-1.071502333861985
-0.8876368315774636
0.08357069568047998
-0.17944678302269182
-0.10055149199714156
0.451464231052586
-0.6795463895693266
0.6589767884537447
0.8865313221457953
-0.06751779202690084
1.7675073983579472
2.1848378559988477
2.7704764294650808
0.5742267260397174
1.0361097821618799
0.9969773712555433
0.6710532136006085
1.2009950746960352
0.7775342735328609
-0.1262013988542565
-0.05211170316556005
-1.4641853828308247
-0.3515801894981574
-0.047028454142835935
-0.9697205701690591
0.15717620888221126
0.7263007740402421
-0.7243355696861384
1.3420308113031387
-0.04173667579946741
0.8649388221187863
0.1370797345078015
-0.5195897235996556
-0.009901688673122022
0.5485106255237362
-0.14361575413218228
0.20696900991737727
-0.10807603775052055
-0.27565902823452
0.35731723905973556
-0.43099148920937336
0.2614543684122212
1.1775823483638854
0.5102212756047221
-0.07089330094685677
0.1755663039957996
0.6122408816779239
0.006144110939346158
0.27053948393651245
0.1926635083909421
0.09952712440328845
0.10473495822630238
0.516923934909243
0.8284392963024223
0.056778479056044315
0.5561165235802601
-0.7883859384733948
0.1969970438407716
-1.1110926612736447
-0.4304271328779426
-0.4987564393400709
0.833550509629479
-0.22307430086430247
-0.11670857460095185
-0.062323300294171845
-0.7495380798085272
0.21345929981367648
0.08289543645016485
-0.4208249256354401
0.7307333949408714
0.7302188326589568
-0.7115075203598094
-0.47347101694574445
0.15647214870627413
-0.18099080798329797
0.026468170983244
-0.5150547945214627
-0.37606970496958764
-0.17030731850713096
0.032413379920092904
0.10441795122902475
-0.35473256177093404
-0.6547283118429723
-0.5853277795616827
0.6426258217539507
1.3616886400354884
0.4511415180048256
-1.006923169122449
0.6030034544595955
0.5050351407613918
-0.4419086582394079
0.5293210161416801
0.5401409990983105
0.7221463402953415
-0.31269579132394065
0.10455368375299001
0.08842807640978714
0.6665342174478577
-0.2192790480979724
0.49290321780407836
0.07469142835588369
0.4793983543814083
0.1888906948700586
-0.4029137167278767
0.19014859967156864
-0.4403541345717769
-0.10311506382989691
0.9310143441732169
-0.2676699453057312
-0.24324903154313782
-0.1250385882563257
0.44314793144074305
0.4603464095646722
0.2701007451519611
-0.44412260249111535
-0.2294750969392844
0.7692205987553004
-0.7543371322626446
0.14065996814974796
-0.030794626295256422
0.1294574744448621
0.09650940346742658
-0.786079136054494
0.35644911800957146
-0.4619140341597966
-0.5058975397195258
-0.014211481770775955
-0.23866637642272126
-0.39581785010281967
-0.23525857061141967
-0.39905922674425803
0.7128780911981086
0.1984452234319875
0.045903091453398936
0.4511199008479404
-0.038156682451011704
-0.0642838824857802
0.4027941785166861
-0.28014329849946995
-0.6542526346876532
0.3697620312244543
0.1297856535572576
0.13683895852074815
-0.1168841648694636
0.2407331977739906
-0.7201120086949294
-0.8690676806092352
-0.17948235877488963
0.34017676777586925
0.5820672431261601
0.2138821269193317
-0.5169381936147891
-0.5396022831792191
0.6264815339653029
0.2585348461584217
0.20895785051169116
0.6172586521016745
0.05602613404614987
-0.1516123554870474
0.20403190867011284
0.6437729128990929
0.6159762203381649
-0.6724252028479639
0.8560510007248432
0.5223492187537935
0.20804399760186487
0.7120703452257892
-0.319428484443109
-0.5755414740074637
0.28143974627463125
-0.4574524644615162
0.68289150497787
-0.42423327488636775
-0.4443157625110993
-0.4437486760961513
-0.1805059657138331
-0.31616136988090415
-0.2325973548590175
-0.3041054399971329
-0.7204463258465404
0.23746158397376999
-0.32816162643337743
0.013860084143362525
-0.5658097257044565
-0.8045990196022684
-0.11290892809157566
0.7723732051710412
0.6648416473863484
-0.34750445521114387
-0.26882998560054994
0.0793594640670406
-1.367057544546108
-0.35320047478023076
0.15299402732703576
-0.0720693484080438
-0.9099815449660014
-0.8843999973218288
-0.7744711344687931
-0.07810333422729127
-0.3889544772606805
0.7126789561557261
-0.5772688966114605
0.6260885003726971
-0.704685307133052
1.2187078804385747
0.29241944442882006
-0.999576031335054
0.6240596895505147
-0.20709217456350537
0.46922561732169377
0.06670767068507133
-0.09571269919747712
-0.20174070913879572
-0.6465142629383025
-0.24484681456829835
-0.6060118716086057
-0.28419841051781447
-0.05658342631787465
0.5684082176626869
0.6869215144328682
-0.042407030165249854
-0.5815334347284105
-0.212043441174322
-0.1566942036610337
0.6949791013109138
0.43196839437017326
0.17596129796348392
0.8734940021322587
-0.3950208088175587
0.31349461677965246
-0.2793727419157397
-0.1426662357237619
-1.0566135252128417
-0.011155619626662727
0.09606702452146706
0.13032949015658138
0.5156956573462996
0.721059856887859
0.4361283718278497
0.3990892369299123
0.3258352757382607
0.4131898335115179
0.5630885385802507
0.8010578761639415
-0.08613794184663329
-0.2559790602382737
1.188752587931921
0.1326581211356528
0.4342835953195965
-0.6864499396826117
0.8048420619380781
0.3858776290117522
0.23456829329957557
-1.5800671778718942
-0.24943409529283533
0.7723069071665247
0.019796672400245963
-0.49877094113024434
-0.18624773716840215
-0.11344300175181253
0.423853592949977
-0.5810003716167857
0.5343530651204506
0.27812598047818965
1.1011392784092346
-0.04723597205526692
-0.30965515462877363
0.21625614655525777
-0.07175503444963066
0.09031932278462103
0.8203137674507196
-0.6174741984155154
0.5481197190554761
-0.15141576527254
-0.5864221895981452
0.4845392663348758
0.32074869825573876
0.27949209684560306
0.5808360511537485
-0.7436645134763297
-0.28594584084489205
-0.869716204904272
-0.30799136269934596
0.3740349006650391
0.08473323711646125
-0.4474151720039648
0.05518962104500627
-0.013221973252422713
0.22762519428492434
-0.4221895373794555
0.008373685734471857
-0.03815960861294654
0.11698802820711741
0.3152919347160214
-0.8949303545280307
-0.5956121773172421
0.37970796994557543
-0.0054537378815150556
-0.25741139455894824
-0.14185014542975083
-0.03749698000076236
-0.7791202675466192
0.9205748896599841
-0.19700273221592657
-0.14406654825937862
0.09479753083612816
0.682899616346511
0.3216475030335516
-0.005518328211266965
-0.5852835880130034
1.11433780243089
0.38248724033022224
0.3435682187173521
-0.2665047161977288
0.2836141116324572
-0.8358792111760991
0.03028929846517356
0.12827272735496753
0.9867467308267698
0.19590365637919308
0.6724681215844502
0.24987981855596916
-0.794301127055738
-0.3900915073089834
0.2006373521267362
-0.7335832210805395
-0.7111969728547796
-0.5623251478067381
0.12394634702807159
-0.2695866750271781
0.5792214683563096
0.3168258817236295
0.24634958737155865
0.5270370608086252
0.3003775911762153
0.2586906315672228
-0.2310732991508128
0.6513637109353516
0.28729016855740125
-0.22548071380161394
0.12787861408176932
-0.788931502746042
0.33627440486066396
0.3320045573398539
-0.9495532967227305
0.5464348354352628
-0.7069979875852239
0.003959402947674662
-0.2071940910600042
-1.598300226058431
-0.3164188134555308
1.2555742866421062
0.030617306223973184
0.8764177666051769
1.4287189509570677
0.34142647629655004
0.8634736048497149
1.3624861629489524
-0.18198796536616457
-1.2416163013722084
0.3315725400705817
0.530529011885634
-1.1008745398826165
0.5925833064687176
-0.3014211237130275
1.3547376823559953
-0.1822029957089818
-0.4767234700422235
1.328246325008378
0.4632594075922737
0.37373101058986835
-0.5362146766435024
0.11564387527373338
0.5538020731274486
-0.549495572144836
-1.3221065613431913
-0.007771585166225698
-0.500720798583038
0.592002881462316
-0.036769831000188824
0.05235424424108662
0.025029461229958916
-0.4910276824779948
1.4992009926404686
0.11019691299814527
1.448366692121502
0.6463919277717969
1.2437048892701403
0.6875830452444399
0.6703108120698653
0.8727353444827265
1.8080436812992526
0.3370338151906946
-0.5694517051917817
0.48968751221456797
-0.5651039959761033
-1.3965921912383936
-0.25427916133279416
-0.9562376562177377
0.39829010800556286
-0.20211020971993945
1.0768191930256872
-0.15022376870789245
-1.067571629581571
-0.021314395172984668
0.3595983762512547
-0.732968086065692
-0.3585788846881236
0.32290693217670297
-0.39281194517627993
-0.7475440770623624
-1.0334249339336428
-0.10612008858229466
-1.6607033578534047
0.4004044840606117
-0.31769879852042004
0.08640947148765799
0.24383626204940345
1.0460907022260935
0.7830116751383207
0.23046269453756313
-0.49471058639950916
-0.34394625597007167
-1.0617056316950888
0.5844071902055569
-1.2786491068706336
-1.1380913737751785
-1.5455118596779267
0.3504310655779491
-1.778575069348312
-0.9742943121325518
1.1271615175669911
-0.05093989805921595
1.01727202174092
-1.1131585594397027
-1.4058943391028336
1.4442777114065004
1.5462185936373598
0.4623627344208093
0.09239911224503639
-0.14799096939262169
0.7851241144159765
-0.005740182623912904
0.6940855948087742
-0.1780715253641993
-0.474287175738751
-1.2959382742825283
-0.18078728610703781
-1.1724064663445422
-0.5280787557677309
0.47288116096370914
0.5484845293629517
-0.6067546116597313
-0.3476151741310522
-0.31913387372236657
-1.421729608497535
0.27577436099993785
-0.6997897376991499
0.08457413541408942
-0.29734534215732905
2.6624296752781276
0.02465885734473472
3.1430583480359022
1.7091953215665583
-0.2718960343119717
0.8598013761887282
0.35438034985696154
1.357690308602047
-0.3212428195818515
-1.4074835303542048
-0.8984527189967608
-1.4284454287428034
-0.45491917964542916
0.30294449800019235
-0.30316921104863714
-0.47536798430727933
0.13733691428658498
-0.13969175002983203
-0.3786214502125751
1.359490760957248
0.10379094384815116
0.17972006018861256
1.5351181472285027
0.40961990538778503
0.2193357562379342
-0.3646924423186508
-0.7880968475121906
-2.332607955519695
0.5034497998304548
-0.5760183300234504
0.29832546630232026
2.2150930300130964
-0.591072245235895
-1.9062199816274354
-0.5191718956778409
0.5746282841991956
0.4921925913935825
0.15760326186173146
0.5953450618045687
0.5465855175425429
0.28260437950470396
-0.47698493768244743
0.41649085914324213
1.3675486831099306
0.888155821297642
-0.1977938028524897
1.015946717719157
1.050735618435693
-0.813413691603621
0.4740680770342936
0.003772627202681289
-0.8146427600014353
0.5970508939003716
-0.2956067642526696
-0.14636901264322477
-0.6353949635941346
-0.13270203288395496
-0.1697814561715601
0.5852024416819471
-0.3824422027748511
0.5414168345120729
-0.8045099161599443
-0.11253280829848053
-0.028534639832090147
-0.011599553666736595
0.7779314639793584
-0.1678745674278529
-0.40000710856637484
0.40256171168592264
-0.3062652426937341
-2.615411608187034
-1.960074920480011
-1.220869053996738
-1.8319312287508258
4.6081703303145725
5.82679502369971
4.798013197261062
2.4959476338311566
5.860312792837791
-1.2279459138082514
4.154905832195814
1.0960627492988577
1.5138146285165914
1.8208198095580634
-5.10590006437546
-1.1178661494097875
-2.327723144982345
-3.7358405551278944
1.9445267380799778
-4.776399863252678
-1.5153234941875362
-1.765948758066117
2.2812785538336686
-0.16398156636476957
2.721849651197119
0.19406904026447158
-1.396786417622915
1.8995609915534863
0.7952421996209929
1.8865267454053174
3.290100723171771
-2.340695430581486
1.6284257119892511
-0.18735931328597222
3.4943197398520214
2.994977778910461
-2.0956985819707237
-0.9907984411354936
-0.7034294878223825
-1.3675627918460973
2.747921651902552
-2.7770127471198975
2.1251444451933277
2.3391068350283097
-1.8162160689897522
-0.30309467855239036
-3.300790816104087
0.10082230222010977
1.56861161387048
0.03100316016774951
-2.0687326231195344
1.4233517117705046
0.11150121399998014
-1.0994736049726725
0.347388418885209
4.4890111283330505
1.1247814464391541
3.5848802863858467
2.474558894995159
3.316133744167854
0.3825141758783873
0.36331771767281235
2.8512794016274734
-0.9164712358704072
-3.0363472510636216
-2.3224266416915236
2.2927076430032267
1.099552885923853
-0.7462223771698951
-2.203677846424087
0.4281464350037033
-0.627047105846976
0.7299606541732161
0.5439903309553917
0.5053189048418791
-0.09344878183151584
2.414590720315358
-2.821381233450304
1.5394614746824538
1.2378775049813213
3.393125064433594
5.073008652548483
4.878749757241183
2.995736551046337
1.2458848065487325
0.9213779603976653
0.784352984962707
-0.8653416890030197
0.10366133633822673
0.9526981794736318
0.16980870262157977
0.34730478927796127
1.086182345828903
-2.045784746434633
-1.4758412430491714
-0.9228495237145813
0.2639943026720177
-2.0323707637241233
-1.4267765531525258
0.4020981280885202
0.8166752392240908
0.07088997075295267
0.9847232322819374
0.40598951168279673
-1.4780068293527302
-0.14769045730052321
0.17479016607673553
1.4543180876237567
-0.5300049691023246
-1.0335704883160624
0.6056623815845271
1.362184585100642
0.6454499382615617
-0.37194239479639885
-0.8747041345142226
-0.38260027476154035
-1.239975380419852
-0.7891808660169243
0.49130564351580486
-0.9535771566732455
0.5106407794360404
2.357690709545653
1.1485370523434286
0.7879337058439717
0.86482663421879
-0.6090736562056916
0.09628963355846668
0.13309209347241524
-2.217540379501273
-0.21756620946199556
-0.6365128896844495
-0.9740680147924738
0.573406923605126
-0.8496798083258522
-0.3237167378719865
-0.8884966192303112
1.3594491830314201
-1.985919179393662
-1.0496478294186784
0.7764210640491032
1.130295591759569
-0.5210457569726442
0.36339414855532803
0.49277844476244625
0.7769685066616722
0.6861170053193326
-1.874557662919207
-1.9754716551306726
-0.1087639255062329
-0.40527626172852393
-0.4018299640722846
-1.140882119023761
1.9937780672518837
-1.2740136416377332
2.1816485649124187
2.425979559690845
2.780412092681569
2.452841204114148
3.0182502671701763
1.7840037683162386
2.6888418026137826
2.1360393510106954
-0.8155918926341907
2.337643128692111
0.2985453027870616
-1.17927842174079
-0.3908791147946202
-0.6843065573170907
0.05407380304907522
0.10191955447275869
-0.9814889101290125
-1.013715835298679
0.10914304478572096
-3.0848754717862263
0.03177783487401192
0.9755946760420092
1.0483560564582808
2.811057223717895
0.66617160634426
0.989010953212371
0.2554003866870134
-0.23185102124560175
-0.664921986481004
-0.28650480674553314
0.319031366898774
2.128190066935124
-0.2885023239503124
1.1343329828696325
-1.7263993182994308
0.11541869011135422
0.4770021798527835
0.3116483054516751
1.0155529499685603
0.6397177380981525
0.21432349564964112
1.0616568954758168
0.5266641030955339
-0.13785467365558518
1.2493269016527808
-3.38162284360907
-0.09515228225079786
0.8693606567447083
-0.7506858477186453
-0.7932012886707787
-0.42904920230556726
-0.9363187107073054
1.1447094984651307
0.4356835344316255
-0.728544561208657
-0.11107219283953355
-2.1500972527644646
-0.4974780058008636
-0.7699463830924552
0.49344551822843236
-1.6651184486918356
-1.089185158478939
-1.4248982110679866
-1.567092581599292
0.9595109998322436
1.1059614733137366
-0.13178062917310468
-0.9693384484847146
-0.5421221248076126
1.4379029738343798
0.6107707266530704
-1.474123306843139
2.5429629090953227
-0.00920062600498267
-1.039680454918619
2.5023544515560476
5.201236026034051
5.583313589838458
4.132476478708477
4.249228026747455
0.7966212973705327
1.1991958125746092
0.3238070553459522
0.07002128314620831
-1.0779104712674603
0.12583248974928415
0.055973774788180886
-0.3472815354498613
0.24371960797031786
0.1514426771370927
-0.3924609566539772
0.3798406067357612
-2.4406931012262447
0.4810822110533559
-0.22821655635202404
-0.5043451341423298
-0.23917330840565776
1.6955850249002684
1.8874377645396914
0.9290212950932961
0.7027921496656659
1.2147195495363756
1.690364759546119
0.28472591577739426
0.9251082030791696
-0.7821568551449233
0.23794048703696175
0.5634609949540804
-0.47265898156074737
-1.0179500732129374
-0.49152579321174633
-2.200356206373197
2.6315950009285585
-0.4098415891365347
1.2817446041470053
-1.0080203897715638
-0.5570062710107854
-0.3872776657810324
1.8199903649257116
0.010428753192171347
-1.5095060288001332
0.3836091656717372
-0.9488975823553369
1.0592674244398375
0.5956389242981521
-1.0061511208916913
-1.5929661822067835
-1.3008495773559865
0.8589730794624482
0.9802919813992417
-1.4553046864868242
0.4207226412668546
0.5276651761983638
-0.629766480892326
0.9495986864997814
1.7480282068747837
1.1622076371490029
2.025936798796052
1.035089417856021
0.819672350656719
0.520514977773328
-0.24271726709877356
-1.2790971834209244
2.1804893045220726
-0.09632185307010013
0.31277848766462196
1.4386487789080304
-1.2581997579523314
0.29186012207337814
1.0283046140616285
4.011699678041674
4.108706886445645
2.2038570262956534
3.080983383822635
1.4907873408220298
2.683740107866161
1.9882255961769715
1.5200852432370606
2.404373283196651
0.0504741767132314
-0.10224366429849402
0.25732589156349217
-0.882415259753053
-0.8536369053460775
-0.9869222794065091
-0.4183567350496724
-0.8379380349683772
1.0931694662800577
-0.011895892313298684
-2.678173945258447
0.37809916185386994
-0.9571618020875691
0.28744367032008555
0.7488119052905244
1.818066899993177
-0.04527953539824314
-0.31379606332405774
-1.0591632048509236
1.1431502727986846
0.9642382895663297
-1.009904987234874
-0.9190935680191255
-0.39719288727427304
0.7752323187988035
-1.3901806096287348
-1.7568767649840487
0.40185075178844554
2.451302530313611
-1.2550352234901243
1.2038294999560384
-1.4051037524624959
0.40215734630740163
1.8300364380436687
0.0656413647067331
-0.6949069898363429
-0.15933163188762617
1.0970806609174204
2.305071675363742
-0.5011861230820517
-0.26898424547153293
-0.347653620055042
0.5997950626679274
-0.8420641060672444
-0.008165231020747288
0.6292276758333912
1.1417451841054453
-0.8704793664553978
-0.11025552316027033
0.15711582453819356
0.2726893567078413
0.10754409704902901
1.4829983512181641
1.0850782211961565
0.8723565078461221
0.7887699850204783
1.048690744723549
-0.1647235012313265
1.5365687360472002
1.3142646128263649
-0.6205733529266695
-0.33617384230880953
1.3221057333210278
-1.3023756501099906
2.987855191440083
0.5171822753685256
0.35740730189855857
4.1993668616688336
4.842472557593384
5.818459212757055
3.5734659616852635
1.6787393100523984
1.6956531619772934
-0.6349042848390551
0.2627778969644952
0.4186729835742213
0.045365058369086164
-0.9969054593009878
-0.9126417615939637
-0.07860014492015754
-1.476452726920736
0.4044909464773938
-0.5986719685863912
0.4408655041736446
-0.9376741171414282
0.5528826604055344
-0.26220854182158915
-1.1099723052298205
-0.6516771616020269
-1.037256877273298
0.71768145324784
1.3917244567514886
-0.9099476562625584
0.19059835544835618
-0.4515540331414278
0.04248301080435944
-0.31089059689555265
-1.3627163528592359
0.5898202974716005
-0.01659684914961035
-0.6405865997462735
1.902536445379975
1.6772425954652477
1.125452438473185
1.1437966268409396
1.3355374278281884
0.1602371652503829
-1.1400272641240987
0.7389650786340575
-0.873040179716832
-0.031177618012633634
-0.5892997466355847
-1.1152280520222564
1.8792236311745376
-0.3293054984829843
-1.5694879203196859
1.3139309483540471
-0.662122404685787
0.4494658386834812
-0.5565137103300501
-0.23515425169503062
0.9400419963578106
-1.0158105621816194
0.20300098521494192
1.8226766195573014
0.040595888774393185
-0.8864101632865868
-0.2562537321477326
-0.7695092666196348
-0.9260679256095834
1.3938650907563657
-0.5007873216272156
0.8605337399558483
-0.027874830672706283
-0.38837085803441446
-0.29153686787188626
0.38027494802721806
-0.8100438996340938
0.320157918249287
-0.21392836565849616
-0.5603642781072483
-0.1695424310612006
2.505858121719034
1.69679455914372
3.0087950190393866
2.289592003201043
-1.3737338188056791
-1.4635705755267012
-2.174922036691348
0.9163030656369642
0.5086348223189134
-0.49180061113287826
0.04750785644445671
0.30811362225935646
-0.6805178599490549
-1.0776522233535606
-0.0034430577870722748
0.09351927088792777
0.6043908978692256
-3.032452489345558
-2.342830852566997
-0.10720306144256608
1.9035989656197339
1.9432914967130157
-1.5022822057864629
0.6756946783376044
0.4504715616239294
-0.7766055391174642
-0.2511392965375851
0.4344674441618265
-1.3753428444394538
-0.288298292228449
1.1503044061070797
0.146591543540787
-1.0202612009000585
-0.31038588508824994
1.7802884620570534
-0.8689633098818114
-0.8540860841025909
0.2371202364895218
0.9293574502087295
-1.1291155167847107
-0.13884301588257442
-0.053914764784152025
0.2778567132532993
2.8843221274737942
-0.4017682349657212
-0.2064564651897393
2.1555380203682972
-3.985480130340709
2.1055422323876827
-0.07245774246272096
1.3085774871576232
-0.3997235104130378
-0.7728771574782006
-1.3937587963623548
0.9477247984354222
0.08087871393633256
0.1289658987737063
-0.9643239686665834
1.9356450904356939
0.4139578570935427
-1.8034838095672128
-1.7096514388448232
-0.4665220607115983
-1.382346066168086
2.085990780330005
-0.36363805810519156
1.3931464477984525
-0.6043295274389169
1.2514748717760118
-0.9270077181968273
-1.4497409757691588
-1.400148223944956
-1.9691703646070022
-0.4790836004801997
2.605320942959418
4.270890610687817
4.2481638496526575
3.4685570516488227
2.5724866254722127
1.8291645826350538
0.7248542881406272
2.1845178657936573
0.7609001835177913
1.2983574019676485
-1.6748569811857745
-0.247587732731669
-0.7857871743196656
-0.9349063391090833
-0.04579468670348924
-2.1603331579201686
0.13651974276268894
-0.2804606785346488
1.6641828564937218
1.507664225103149
-0.7285616321440164
1.0261909589579994
0.25953832671093385
-0.3585207797089731
-2.2937935815114905
-1.0256775711483943
0.4024812172700114
0.08403505172782497
2.0365580880929675
0.3186914735840855
0.9234402943691034
1.8941623984921983
-0.8712595927871647
-1.874410608715672
-0.7044066000172553
-2.351407159114208
1.5985361447886413
0.8481280268717605
1.6172675754233445
-2.170444586258055
0.09860063529703128
-0.22280888556701997
0.7269923068616035
-2.453361627124701
-2.6458803952722065
0.8346708700848369
0.22438740345087838
2.103272609529464
-0.6948258577125406
0.9610693588784064
-1.2497632843467308
1.2249578022597887
0.41181233581211685
-0.1853283278930546
-2.115872881892347
1.138375105523496
-0.22834604663501257
-0.34836790350414437
-0.4049205563619271
0.23168392998640958
-2.2402532269418622
1.4440026937173842
0.30006642940031913
1.1597216108107806
0.5450501549691779
1.1277495463257314
0.35662167990077903
-2.3604618934641093
1.6489375133664252
-1.40038281870758
-1.2446524504369507
-1.4414285988518754
1.784445172142148
-1.0599578731437866
0.4581445589861428
0.788366094750141
7.847202829091069
5.2629241279102335
3.0282619724143984
6.443658173275763
-0.1844350045860973
1.9794444225659344
0.8262718987629831
-0.0724912719740056
0.9308780162095804
0.11863832611414044
-0.1678676324361614
-0.5500407749807688
-0.0954019265859084
-0.6835144697840855
0.19723888342160656
0.5012106529640553
-0.43151782879773604
-1.4131571872317776
-0.2089554742933578
0.4942706400130181
0.7666793645320225
-0.20988679318347803
1.1474696227826042
0.3748034881603746
0.7222830787429867
-1.7650172084143916
-2.270598150781321
-1.9300493157098284
0.761857082376519
1.6580124408632553
0.23736526328737523
-1.6639380090237794
1.3417526881879374
0.49265991138247917
0.5221602816698994
0.4833005927985561
-0.8250265072555925
-1.399365149416185
0.3555211906910576
-1.0182720554120714
-0.7909076851631588
0.19385492283959993
-1.8886501527010813
-0.8283249138081656
1.9089773851449423
-0.5818136211879568
-0.49055614421529575
-0.1422354498752798
2.2733073808287187
1.027432129885505
-1.0840752588797258
-0.33197673613493206
1.1636948534198568
0.28427727074308784
0.36964569404024455
1.0381444652387104
-0.48451051165214604
1.698378789859181
-1.0329100398178206
0.4332916391465912
2.238234208738653
2.101539752802689
-0.7652901287012455
0.9000350313809964
2.382252095578548
-0.1121292999372353
-0.3652754387593108
0.09595520747929864
-1.1486443613689756
-0.3834353932979525
-0.040931082707440544
-1.8037504956865036
-0.27719507523963605
2.274508688581441
2.020255954042873
3.6842694168466164
4.483936725832199
3.313968448524
2.691516227665337
-1.1648386557056816
0.9952985800353638
1.5345213124359884
3.78506007164763
2.0488350155800763
-0.5642430280322399
-1.0062373845792738
-1.3261593134204563
-0.5253361775319791
-0.1556593353008416
-0.8540711522921358
-1.8719924579402387
-0.8717992604664442
-0.3547841646729535
-0.461726913124285
0.6882031161012812
1.1205906895323008
0.7794844052865595
-0.8018869569987825
1.4921141811698184
0.7777902220864128
0.5156193014146059
-1.2998820868596712
0.2552767401338667
-0.3122600602635337
-0.23750375276550628
0.9747349954559599
0.6156435125504813
-0.3791284180492064
0.3828323152203861
0.037143876838451106
-0.8483192788095341
2.068105772017124
1.2131310304300675
-0.8644618056627418
-1.4694190882441094
0.1849031438597802
0.374553750550476
-1.9580267016418529
-1.7680755697450938
-1.089777249482585
0.16141178950662993
1.178243154182822
-0.5404815778183887
-0.3081979550405528
0.4163228151103123
0.1587579018675559
-1.5287737476577359
-0.9851482656674196
-0.7987107236314117
-1.9865850190093262
-0.29822606202993174
-3.4953311712133197
2.1912605889698145
0.70978747958947
1.0281868681500048
-1.3214790011293074
-1.4398569003692179
-1.4856178042518544
-0.4105586932765294
0.8575757718527932
1.604146089464345
-2.11409794502581
-0.5467197427467272
-0.017770695388189206
0.045881827808873885
-1.2391339445282474
-0.8540984941853476
-0.9124533425043684
-2.84410721379066
0.4646154480860083
2.9124221046178067
6.192310253618786
4.704556508466872
2.7449155499461373
-0.5074198595900121
-1.2628694917644692
-0.19909466853279112
0.47043818202762544
2.639383315146585
-0.16474443394627214
0.36166516755435596
-0.911840054152798
0.1365194321774379
-0.6594076658361187
0.8328720723153036
1.1430040307954186
0.3221454674537896
-0.4213988373336043
0.8247084289491713
-1.13273979379085
0.739824275812634
0.6216856202651668
1.163116300177918
0.09164116654415366
-0.22303414674777836
0.1485400089690817
1.2737112723131827
-1.571314094986688
-0.40557615719363627
-0.3523308895604341
-0.6062327538975248
1.2293593211553144
-1.9984000620676787
-1.363476660528557
1.0597583390500125
-1.326546146552356
1.480527132729945
-0.059273464593057074
-0.7894937403427147
0.04512330601870446
0.13444973361443213
-0.09034897630517423
0.4921282831075972
-0.965531604048411
1.1322562611470488
0.7726678504430222
-0.4975728268212982
1.365515265716156
-0.2740285026175801
1.4264211093768706
0.6743703401735394
-2.207690086556923
-1.3808195428808305
-2.1330209450499593
-1.2753673332836943
0.5205599426787966
-1.055550492543432
-0.43572189236791115
-1.3303172690119425
-1.201122708737767
-0.689299094502538
-0.9248101964277904
-1.0253878697612635
-0.3456978102133287
1.0306066148349586
1.3906897623965564
-1.287852839628827
-0.38748919637831536
-2.06658622310336
1.3894343848477053
-0.3617626360498503
1.385603774761535
0.45778792782218813
0.583392956454055
0.2019049625206013
2.4793552568120982
4.8702552294569275
3.4256025264055094
3.496631040165858
-0.31126970723123465
1.2359424628151925
0.6454399608746164
0.5175286850029566
-0.5071891162921888
0.16397456154176904
-1.2467261094078184
-1.7124932212365276
-0.20813398739538877
-0.37086187076056687
0.7985558367699664
-2.5923660864940787
-0.3467602603879324
-0.16129506818101064
-0.5830241331355135
1.9684541120074315
1.1068412670126597
-0.09040933208097221
-0.2667552632799956
0.07820465904264273
0.4819216481755627
-0.12532787281741
2.0180642777764657
0.701944012983886
1.9346296636303864
-0.618573347983985
-0.4867030800365115
-0.025642692450254384
1.3440220012361237
-0.03328445985852646
-0.623503620236953
-1.3125694947570823
-0.6646892849302333
-1.584030442144784
0.4601326597955346
-1.7815421826776259
-1.9058020804764682
0.34943449318401665
0.27441918324713654
1.1074640635186848
0.3055750361497468
2.8282221678399524
0.3428946783743071
1.21083984999915
-0.34173442453132047
-0.029510744774949915
-0.8881248855544691
0.13080295667570296
1.6968050710835874
-1.102374223523546
0.556103763045999
-0.07179169430149035
-1.1471597540027665
-0.6261342155266942
0.47855913196157623
-0.9809895738415165
1.791253220707475
0.5452953129052724
-2.796476902140132
0.408484546262541
-0.8516874195577934
1.190236006366629
0.5286156891153402
-1.4953487892357784
0.19720642632593555
0.8798115459979546
-0.4563020302094493
0.27854334841770734
0.8610749505357802
-0.9125138504312358
0.24296780887220437
6.531519976793556
4.086288058926215
5.730648818877614
6.639318579468706
1.2316196917853948
-2.2547318225382806
-0.7798179848011163
1.7370254373224587
-0.22669277244317035
1.1015968960898832
-1.6478381252964973
-0.0035101202029729217
-0.3310462694601003
-0.5469811972836403
-0.5572831109089231
-4.104865095208018
0.2708623692790296
0.7850200917514033
-1.6466579370513161
0.7188561118340272
-0.749400341393769
0.25860709765642365
-0.1754705684454163
1.0388766752129093
-0.7180161814565916
-2.2119716267107328
0.0571670132739876
0.8961269739769411
2.492277210086709
-0.045977386381564345
0.3403706637758036
-0.36391568202605307
-0.1587728969342711
-0.7159918307893262
0.2682404160513079
2.193348245621535
1.535067471163986
-0.87512045283613
-1.1174594567166518
1.2269832655281814
-0.7712814431205677
-0.24904320384463247
1.7933575426231405
2.923401804575621
-2.209042199355032
-0.434189913090039
-0.44174638163884283
0.22649728384495987
1.3213516169549155
0.13859675610124084
0.9356732940812793
2.0462250255064482
-0.1999433297292963
-0.8961768342866343
0.39410622689081665
0.036542881585730366
-0.03172325109144175
0.10474826094783674
0.9730767141912964
0.31083244687451417
1.3830284951177794
-0.9904225051514058
2.1685921277059954
1.2546042935542956
1.2987720212979705
-1.4805343436500862
-0.48341798483012244
1.298548852927337
0.3781715313586479
0.11206370001570604
0.8524113867764272
-1.062602529110822
0.08967759426198069
1.0165024186620009
1.8767701099596832
3.350053656323718
4.851956492419314
4.372421778722701
3.782768617592847
1.6052495882829083
3.2387936080112527
0.6063562404095095
0.5435770228077654
-0.21821787489936503
-0.8025551220054064
1.8556664929572753
0.5295872316761241
0.3355580236314647
1.0227501961065162
-1.273083468610796
1.4276777629812347
1.192790712531596
-0.3331364333987196
-1.560387958118334
-2.1086595681963622
-0.12350865762883109
-0.8676435959589163
0.3372488841786922
-0.6045342782761158
0.11157794226232076
2.294647558001449
-1.1995446707233106
-0.2159531021635256
0.7437168098778182
0.48551534569632593
-1.816511350850377
-0.2809713770468075
0.5752980135220903
1.3777732418645483
-0.014553373943619718
-0.3891289592195044
-0.9693837228697816
-1.5141814680436751
-1.054746973707077
-1.9282802293134775
1.2504467831099773
0.5940669598981666
1.3178312515086912
-0.16324628314931727
0.5532379219231787
0.3125711359039969
1.429742246675953
1.1046013165350343
-2.4581410072362573
1.1976392733875123
1.4038663083735334
-1.7133555366061124
0.5894822749955685
-0.29394261319506926
-0.38417706365554316
0.47727567687227546
0.8003465047567576
1.4429420778758018
1.4318166240707606
-1.7558809689860848
-2.1171168431825973
-0.5514925125009189
-0.6426847895427588
2.467968852916022
0.5977192665888728
-0.08314139966910854
0.0032626375123412377
-0.24731642690073952
-1.3526438300316082
1.4552096762030327
1.69650249632244
-2.338314612710349
-0.021836322668473268
-0.10772870090920078
1.4611084795277092
5.944447691702847
3.7180127565799257
3.4967514426409396
5.723526453284597
-1.1601028266685236
1.3030512298579295
0.7136867675166279
0.28669917424067265
1.356585379752027
-0.921980848864035
-1.6032133365915893
0.3964379432862606
0.6646956322202207
-0.20486098500758182
-0.7734704068061267
-1.12188633851915
-1.842935833191483
-2.5910407275276883
-1.3582722758680403
-0.19656608747731102
1.0248373705020906
-0.7064824571578295
-1.0447606754005312
-0.4123112512944548
