3.465525496717258
5.901537703202659
5.051534521785119
5.217074466407473
4.124056296559969
0.3094692950379628
1.5148012585130408
1.0389430675200864
1.7752793158261935
0.6187111306329155
-1.0375347124695393
-0.3425361199266705
-0.6430993996304523
-1.7938280624351108
-0.033263888028744804
-0.15346107511372442
-0.6885805276122965
-1.4506553069971262
0.7711754561489806
-1.020250101410915
2.860948981632154
-2.441261168207192
-0.22515498621474117
-1.4126193840719767
0.13715857873960774
0.1272281105789128
0.5998732379771856
-0.24389730492759437
-0.8379018843784469
-0.7137069738612366
-1.8829466347314476
-0.8907478207058677
0.015954664349106418
2.4501241010604096
-0.5241385139896586
-0.04074608183728684
0.4537475530797162
1.0450316349394053
1.1158694950738224
2.240556763860429
-1.0147171803723718
0.5818268897015465
0.3721781904446413
-0.3679222652711054
-0.930680913327436
0.982225037152506
0.08679365387239785
1.2343832105712664
-0.9415003098519947
-1.7145151750866097
-2.23224051508606
-0.6069925345979688
1.1360862669770195
0.8943878841189563
-0.15052599220803153
2.5186295162521195
-1.8510001852162987
0.11839374217738341
0.1583203049895091
-0.5125886372755194
0.27538972273282686
2.9150439180228584
-1.5069191204173211
0.8093096809924907
-0.3708163432100374
-1.1877608693701043
-0.6760789035354803
0.1637585046081505
0.6763225858830865
2.6471853952658453
-0.4885151879449349
0.5907535359472688
1.0210535725327317
-0.27519300647812267
0.006289545317831449
-0.2606778755731324
0.17278507928661135
0.07242590139351152
-0.5685340199758688
0.6593541376729612
1.936767193646519
0.6138504380226115
0.29084207770606
-0.18861259846265763
0.7297096870430134
0.2960130611460088
-1.1091210418156896
0.37076892461656336
0.9474736105932314
-0.3832270029331546
4.475954626976001
3.7199388839503538
5.9582852279345415
2.9643245928633357
0.07563610041289298
2.3307887813011616
0.8027047666362612
1.0234616448704283
-0.724715131691646
-1.6419525716574601
0.31043685277991456
-0.130464402675337
-1.4645368775604153
-2.353060740516544
0.7240852401284122
-0.27388321765578894
0.7944681297804445
-0.2893694935543404
-0.930994534672094
-0.43563627385987486
0.45379412821855614
0.8271833124033737
-1.1053319650009263
1.1987880338945174
-0.10745259151236747
-2.0574038979524096
0.3688630252367642
-0.41811809784266807
0.28575186313582734
-1.9992180464864582
2.7719294875155693
-0.9096653538587924
-3.3213461497915695
0.834163133047411
-0.4392987529059885
-2.506405001177626
-0.10279213083898231
-0.2962135480105486
-0.7742458335394605
0.2160006192697207
0.05548904727714493
0.09219537886991999
-1.3106020641690108
0.3584097088782583
-1.7583427948582346
0.23622792452480534
0.6010363241591595
-1.1459775826961454
-0.05792888605884294
-1.4891095570499067
-1.409917674256191
-0.7242533814669103
-1.4575304821788369
-0.6061812879089769
0.5275802413116086
0.6659096292220164
2.66999419474247
0.2225127104542211
1.361704543525209
-0.5377143087450534
0.883693401573297
-0.9077026426588786
1.0371479795895004
-0.00823395258229015
2.455361186721051
-0.4659020289723898
1.6505080514596315
-0.9017078468714749
-1.3386190133528242
0.3179503432427013
-1.5650829616614685
2.116721951113895
0.803227169679388
2.076879978604052
-0.6681184362269872
-1.281785662885011
-1.6924454675891822
0.8206293119290495
-0.1813115107851332
-0.8026952035926191
-0.20814720143432697
1.4564917259707868
-0.2721378157100049
-0.8375816870692687
1.2198227639581563
-0.9060216954644411
0.3064963978712466
0.6360249552436578
1.0157847072890545
3.5145210261105926
4.618213047723226
2.8628850031745317
1.7407356031972299
1.8750675340158176
3.0063466174019857
0.6473659192075811
2.070586045906422
1.6957255895082293
-0.6098602753158594
-2.190803496809976
-1.2581837312097546
0.36678053081957035
-0.08720924092892468
-0.6717249456232607
0.2665605850522916
0.47365796429833684
-2.249391665612791
-3.3890478828328585
-0.5478912708193311
3.3616128286190876
2.16888099339443
-1.5825272108567163
0.009239025299954767
-0.059172081251266884
1.146104140364603
0.06072291069765812
-0.4208775637280766
0.6376714474153198
1.2109272544458216
-1.204290042814907
0.2232011826719017
0.19207927585338058
-2.215820675160166
0.2595340342514388
-0.11021393447667172
-0.2927777901023914
-0.36472060570646697
-0.32913621711325963
0.2977890812348667
-1.154265464405725
2.400878688542727
-0.5044244682617371
0.14241528088622502
1.4340774963463572
1.0989888822395006
0.3198018278646816
-0.8216188515141233
0.40537684625414316
-1.5914968699528833
-0.20870352580925866
0.2922625159837405
-0.8662928685971802
-1.2786362502080584
1.0977730473829548
0.7480513869532506
1.7338869210531414
0.006812592587792654
-0.1759983756651839
1.2505998839269323
0.13835858899188347
-0.5054215164197576
-0.8739175050389073
1.520447273003786
0.6292996982467255
-0.08200616587998505
0.16730674863231085
1.0000406942813136
-0.6133706329035117
0.04190449080346216
0.533398609550641
-0.37329262945536196
-1.2441959370814213
-0.8570351383623533
-0.48161626038151983
-2.637983598013369
1.6295051759102361
-0.19672025956718503
-0.45613821889146283
0.8839214874110581
-0.2481223106668861
-0.6338046350825145
-2.144936984741991
-1.1232194098915143
0.9793438564312503
-0.729850282896611
0.05814463538893666
2.588351986014472
0.3373914008962478
4.456586516694014
5.5755718222786435
4.750160605004929
4.662385295682305
1.9303032883762627
2.69492401853258
1.853267569390283
0.8099138668189767
1.7957455329183416
-1.8222454749388517
-1.6663008282620202
0.7777170332480339
-1.8116743291535868
1.7595961004274407
1.6185797428744078
-1.189327813231568
-1.8154862415151631
-0.5242098092971922
0.6942083685878568
-1.3911173557465384
0.5235773418134524
2.0091551473286597
1.3307800611157825
0.511906418096928
-0.5471794913770132
-0.20158838607761118
0.0638285355059536
-0.2407744118473086
-0.7708370752846677
-3.0998725593170073
-2.643645387273959
-1.3984657836231393
1.4779005762606752
0.3102358395301775
0.6678954265226877
-0.5318346760548331
1.3313712561214068
1.7501616444810764
1.7556961525637835
-0.9144086684512067
0.23532072776191104
-0.25086624054558526
0.9313013967297752
1.093254685229234
0.999720456902371
0.2597187437748642
0.15012342812471863
-0.3799467558950548
0.9710773358020335
2.698882505581484
0.5924066640507901
-0.059351530633598715
-0.31094483033486503
-0.7556599998525804
-0.8010963031742259
-1.0931282074893958
0.22570513645470958
0.9569474363219145
-1.068392730252543
0.47584468493090093
2.0823333308689067
-0.4349201283733266
0.710508673473047
-0.5574084797486324
-1.6481652655575831
-1.8673912797240033
0.1305135353687315
1.024337591160734
1.1739108553219824
0.7862632201398518
0.5325488598791362
1.0899645822142057
0.8827858920138176
1.4554521072150206
1.1028663799939107
-0.9655488382090356
-0.8720572385447343
-0.3543411967482515
-0.566129612916938
0.5483160455913001
-0.5006655366462034
1.3318656680853744
1.3903916175577764
0.9102573950121651
-1.474835482496681
0.7668676727399801
1.9271629418626337
1.540429283689427
2.5136168351080803
4.251128132603268
2.77214828535156
3.1886033195254635
1.341359209505192
1.3725803342554865
0.8618620423208495
1.0886464617695235
0.9672639738113775
0.8544194676368033
-1.307887462692525
-0.5497371406146834
0.5184743850259992
1.067540573385389
-1.5651146294250087
0.9451706811970089
-0.2876192470185089
-1.3350040557005591
-1.9776796288288012
0.10156264439669538
-0.14348234990143255
0.42603830981733837
-1.4253085114647328
-1.7700008908667908
0.5197566600000365
0.6946659272814759
-1.699952602667468
-0.0329642548900308
2.627838986770327
0.5758120633994287
1.0978153222933638
2.151316510088586
-0.4933061217886119
2.3118580352651557
-1.1912419560211611
0.3696314174037655
-0.3991799248795368
-0.46985848658390517
-0.4699165033251584
-0.3434595135126181
-1.054920499270035
-0.920362367820131
-0.5507452457240523
-0.8921247025490244
0.22942035159807972
0.3014735644820414
-1.0897293177282839
0.2600311937567552
-0.26435469778351467
-0.1333731936425493
-1.3871438503106104
-0.5640627017352613
-1.2666827821731277
1.1782898267479496
0.43658967619451117
-0.49733771038614927
-1.452659276485003
-0.8255906906320163
-0.260746085680069
1.28517282401191
1.365067967106242
-3.5606186431671585
1.0709547195620006
-0.3734879272712928
-1.1637690902417746
0.10463532858353086
-0.9556888340519831
2.325288878074136
-0.7722577817245049
-1.0965375188268496
2.594945085021772
0.6897769171448835
-0.26744394945221334
0.5614091281107344
0.6282875108079202
-0.06224082561898403
0.18791124165532386
0.8873184699143832
0.4554748572932309
-0.8176352473593753
-0.1335110832006352
1.3220625583297994
-0.44232364069663876
-0.0728042944772721
0.8925153184631957
-0.5525175360820369
-0.29710701882777446
0.16275987842183098
-0.6112432299477357
1.094900061859482
1.1398674699695477
2.100375299415102
0.5200966249642826
0.9259486620878422
0.33761608075009697
0.04077855528195573
1.498852550563552
-0.08303277521475194
0.6185839629592057
-0.3912127267065253
0.21949085928869813
-0.2522434671472609
0.7776002440241314
0.288341740297175
0.2105656146231279
-1.175227246186015
-1.1974060110139115
1.0680934117588554
-0.13746185768910368
0.18775793135986069
0.9729169794393491
0.4426444496613497
0.8380843945614858
-0.6385070840033565
0.27629594121259843
-0.3021758621711128
-0.28853646080219997
-0.32262186776151985
-0.3365607908839715
-0.18556151629898365
0.6748084247131928
0.07363772220584791
-0.4795063313409588
0.09715200207271968
0.04305107273898684
0.03282084555904227
-0.247487522085462
0.07334497168758758
0.3939280049549996
-0.007105732372531204
0.07233489886949496
0.7304344045192341
0.2581079031460774
0.49106631127973793
-0.8029310623769055
-0.13286422202871234
-0.7460936185165522
-0.5162982472804295
-1.0032704667128267
-0.7979881558640032
0.5288375236299763
0.1679801783607144
-0.7268784566995165
1.1368471736067203
0.018159293864946024
-0.3157037640739633
-0.08722197877964652
-0.048832821433974605
-0.5276175898167086
0.013864077807466235
-0.7256195512457361
0.3235961882762621
-0.22094153693174073
-0.892017267157156
-1.246707860752712
-1.1302138490051905
0.5226885361958157
-0.277417312745015
-0.5793691353037039
0.044174048366027896
-0.6648586710470896
-0.5390293120803533
-0.19596833158298346
-0.10459328942139809
-0.4530734316247771
0.6065369288446976
0.12077833323284062
0.3957448654594624
0.20332834321828314
1.1599038035741214
0.2910620606900887
-0.2501216863563267
-0.7460961873503967
0.7113028159239005
-0.37401840590365054
0.025521421190997873
-0.46513610960117796
-0.15607209099259944
1.7429400347803965
1.625345365363204
2.133565071425373
1.7366479420175132
1.5289646535189496
0.5211288392682687
0.6360822437627738
-0.36138239554392104
1.2409649886172354
0.3412746237783818
-1.2136173651337017
-1.2056189103712978
0.169859117547273
0.04053304060268781
0.2553093309528807
-0.5092380018841448
0.5358716507144512
0.30956302127376667
-0.0692839332952874
0.7538159329792111
0.3983325128237232
0.7387012042368961
0.12068586478222348
0.3163558730799238
0.7318697811668778
-0.3720500302594196
-0.1241638518981771
0.5198514344013597
0.9899958320413889
0.23698855543892744
-1.3186394093469007
-0.1077230599065781
0.1683915045909715
-0.307232684374071
0.3094147066192791
-0.23858698464102274
-0.48449980254822517
-0.5209104966468978
-0.4939137739942543
-0.11163767857218604
1.077334799832106
0.21115761481262477
-0.029741127340847523
0.26636210313472186
0.37650009003287127
-0.48176951733714185
0.9726191905585744
0.1623978300729648
-0.8311434820683371
-1.008740876735076
0.05591187381971874
-0.5076675544585931
-0.8794055048327573
-0.4247547392405261
0.19045186428103264
-0.3299393102057943
0.47231559537190676
1.154772203571499
-0.3009558811441213
1.144568066676171
-0.16904981907367822
-0.8118617191788999
-0.31042788471344557
0.8610478706906527
-0.2338819164458619
-0.8037594663215843
-1.4332573076999529
-0.6031917760575407
0.11520479702458947
0.5790901038973868
0.8267460813127627
-0.7796389046089728
0.6351763831700206
-0.2613705770380893
0.33800072867812603
0.5307577359527873
-0.19079217098242418
-0.5776351834995375
0.6545242244389876
0.3035422283069768
0.29291225213067223
-0.4685940855648344
-0.16701354916626443
-0.11816782337728596
1.2359387225732887
-0.4093505610793965
-0.4842018259131334
-0.26330663547887384
0.8381686776380518
0.5939552845870923
0.4115659566835991
0.8942341177380069
1.5585987550272398
-0.20537507696120283
0.4432016229547423
0.5589636792065247
0.7896450921659635
0.7275919006223464
-0.4592259177531245
-0.6262630508603326
0.9789402618028182
-0.27304149954474355
-0.028322715409266147
-1.265268720776621
-0.99137722704475
-0.42622415461008967
0.2898383084355773
-0.2964733041768633
0.4030366098209312
0.8982537519599101
0.3149687472866318
-0.6928532338148736
0.13120706358894685
-0.2613740266624487
-0.4403998049322696
0.05758517755679135
-0.6983781958679707
0.7350000639815867
-0.6017443767682112
-0.43897009310292223
-0.6061214364128655
-0.005777384617926651
-1.2508446909713504
0.38137001413923854
0.6475500274972581
-0.47290332266191015
0.13433541049328962
0.9765747542110914
-0.7548376778189572
-0.16609643960268836
-0.6435906410208663
0.48446028100538563
-0.11472666880413279
-0.7095062049498434
0.07261819213393672
-0.6178602964816297
0.287639362897189
-1.1226459786008667
0.6004903944477801
1.0473415996457576
-0.15643263204984492
0.3067555906773334
1.0119826963474097
0.22314045343355374
-0.6885847325261814
0.33510663904645066
-0.22198902597318815
-0.5076718871521204
-0.18135602438797827
-0.2612944891598683
0.9746516939286007
-0.3993071987766801
-0.06891444283470421
0.5931221290399271
-0.47130067848244184
0.8285970960698182
-0.46857389662585824
0.6214541437215811
0.6003632384267601
0.8255876017453746
0.21363033303317594
-0.6194900443059124
-0.8752678591359591
-0.1283627341999943
0.3346971259410116
0.6374944713409184
0.9491125883936203
-0.6349826200480907
1.065837395395149
-0.8188683246144894
-0.5237075977678093
0.011877172257466428
0.11194953539281778
-2.1001307933976507
-1.3423418163847263
-1.846693058597742
-0.6387859337651185
-0.8505571986811208
1.935109830250595
2.8446864133995535
1.4126134234126995
2.088947207193174
2.1536706260618863
0.7490225846551577
0.44875249329512906
-0.046078771397725315
1.465152555936582
-0.8269916976275803
-1.030476140241415
-0.30535301447763175
-1.4615374777500878
-2.3108733621044837
1.5259324159237082
0.08519066581568116
-1.1903419757418803
-1.3541975610550683
-1.9394440510247966
-0.8987398030398103
0.11561042209658402
0.8762305902005841
0.030443854263179082
1.4804866526154565
1.5625729139568834
0.7356030309926342
-0.3986159045807782
0.06677493521922473
0.7002608541414258
0.6305047907756823
-0.8235481788036627
-2.1578573445670264
0.016301576521530053
3.4074145437411727
1.533937336282
-0.20731583241689733
-0.20674830945737538
-0.7922455722229285
0.6352084866917731
2.0426205894190876
-0.7957302007431184
-1.0087227328087172
0.04967041780948089
0.16146622411491174
0.45435057726954103
0.17609947236137216
1.1853806620736016
0.5290691300298143
0.5514415147736595
0.9037340041353408
0.7184220516734725
0.3371674587866572
1.9957365386634303
0.366080789646648
-0.5507747513211783
-0.40800055295265514
-2.060402912641525
1.1910445655056403
0.275381146982302
-0.12666705655990573
-0.3345963264958781
-0.5416391460768061
-0.08204769684229504
-1.1099695814355772
-0.45725510279725823
-0.052379765359952174
-0.5856863484343111
0.6997131510125952
-0.49795666443152353
0.672222737282473
-0.8522015402583288
-0.7023024813086347
0.3182687657374672
0.5073545776702081
-0.2831002209497762
0.05031916353527016
0.1914080057917723
-0.7182981339888277
0.5147030673685532
-0.6951533973559934
-0.4468135828854719
0.3686557110006963
0.8014434472112907
0.36498468558889874
-0.6996111308187477
0.32963460178107684
-0.5865565724663124
-0.2832785876461421
0.30833072564908015
0.5602477678010302
0.8234055762137691
0.6046993607629416
1.199736962028848
-0.09633000171625283
1.2897746534288659
0.6951054810514825
-0.4448759724479124
-0.02517517729076818
0.885441959379746
0.3390701386954508
0.9273542528013684
0.3389982522288609
-0.10426277462210348
0.10159994776444453
-1.0016494255952453
0.0399852887292316
0.8603866715303077
-0.39849005990841474
-0.059888927227888966
-0.49941116245408945
-0.12925911516202057
0.5680614460851552
1.1192886020426303
0.04581538488098095
0.33342988960077247
-0.13091943389984417
-0.02587796922464697
-0.35628289426553766
-0.27305277752967744
-0.53954474519686
0.2745982924372298
0.10824009497008369
0.2761865661133629
0.0011702872731870206
-0.666980408325456
-0.8231903714708421
-1.085577914315262
0.5093232267872663
0.7998394782736089
0.47005962153630043
0.2330721652370544
0.4702867188412946
0.33540695577582974
0.05174088892701631
-0.11386159220018502
0.5211492995888379
0.011486163513740003
0.4002140563143572
0.6671944548918699
0.5593122668704144
0.46210431479394926
-0.9563402484039722
-0.36960365862634526
0.8910221038153867
-0.17063797046045162
0.4740364404014199
0.5449529716446669
1.308431748262176
0.6673254500284284
-0.33667207106102515
0.06631453811055449
-0.04302186411305148
-1.0033584739884183
0.35677526726746306
-0.16885279160365352
0.33754606421043676
-0.2078585840103147
-0.4003162794663736
-1.1821844896021099
0.030069363853788583
-0.93007547549103
0.4772832834586538
-0.3838953431692822
0.4339957791841762
-0.22239893919474416
0.24320267026432202
-0.20555210348821842
0.29776984182862215
0.2185645544185954
0.6251637773342811
-0.09092947548390894
0.3545458156528409
0.030320160047805033
0.22242566057837831
-0.9684478837649005
0.06365461962369973
1.3261818469627846
0.11684170000907515
-0.0465109851889855
0.9502350829990144
0.3847072768197718
0.7218472167417748
0.7461241141668082
-0.35733370162124356
1.5819636665750065
-0.10831727541617886
0.9707188228028594
1.1574500636689153
0.3672160202524424
0.2894782320239714
0.11018621616023033
-0.9487144213549124
-1.1198932573292266
-0.1124980583643621
0.32899880308831775
-0.5370380603732151
-0.17111856008358056
0.4271009805084571
0.940025519093094
0.6895103805601797
0.22522642479819263
0.13583285246137078
-1.246673864653555
-0.7323181900019264
-0.13259487280982835
-0.6298014339435125
-0.44983924269467623
0.5061941636151654
0.06315894700079364
0.0798467347120278
1.0386902100721989
0.07853998997333442
0.7569811139099911
0.2463834967203021
1.2683773412298183
0.04904325686324098
0.39228709471384715
0.1879308150476352
-0.49806481448554946
-0.23701121732005476
-0.6135341875576948
0.2216313465461558
-0.034180504448209914
-0.9418805104757566
0.23476150861514428
0.13701835310688348
-1.095173247700965
-1.207703807172093
-0.052861328165320264
-1.6352600223608533
0.7450356676392434
0.9506754836294043
-0.5792764810234518
-0.5234542299510918
-0.3547444949271083
-0.24331226077527798
0.22310952888102487
-0.011145861093461273
0.6117145048666219
0.5784102517279933
1.1254416756976484
0.15619668062981035
0.8935196261635372
-0.4133130110525455
-0.626806252230175
0.5954179638927026
0.08051623688771248
-0.5784591352200041
0.3706704563673005
1.084776638601478
0.15740979705812586
-0.18531036216932376
0.33072777194992486
-0.12893962648838186
-0.3719086756402627
-0.5808781531232807
0.27076320088074257
0.4363002491365081
1.2146079616591177
-0.28465293043770795
-0.2877084997242471
0.7420057939232876
-0.6864414075635233
0.3244972230645713
0.5290336001931187
0.11019374657484668
-0.7826645075459111
0.3662131713838457
1.424395212797489
2.006440833701414
0.7404461958985558
1.5269496181144013
-0.6047282100033644
-0.43376202678376063
-0.375194910079904
0.4847311871233224
0.02107402014646234
0.06722577166038501
-0.3842361299954253
0.05233157394246871
0.049604098815473
-0.01612056282974139
-0.07155796840879572
0.7763817161991746
-0.6736433668217375
0.2759677595328743
-0.5279769290733204
0.20521498388103554
-0.3111239476304171
-0.6825652036328688
0.07525712065321619
0.2803370422883503
-0.22286726933762752
0.15342987923152962
-0.3125915802028463
-0.2661744710919186
-0.15217213216837716
-0.2413228592728103
-0.4886809291676427
0.8515328142749733
0.6379799300473672
-0.12155924477936902
1.970819891324591
-1.6077544500376453
0.18504001174248152
0.7621882271660686
0.934381387630054
0.19269401254374852
-0.0013043889312734092
-0.21490687114390647
-2.1981231257252882
0.22622690715883692
0.3079884725147928
0.37393645737451164
0.11202320903592344
0.6951320318414485
-0.4363015406860419
-0.12449949062833132
-2.253675085216454
0.22576735787247174
0.9776784643567171
0.25632231441810516
0.18971849178721
-1.6769511796365428
0.10510071940824023
1.5009929112000462
0.47121413179284605
0.2162913739036052
-1.494349011706111
-0.03504283508377509
-0.03220286632709546
-0.31063916537087893
-0.9782991127863088
-0.9003630732515866
0.19041521243748433
0.2452596847664941
-1.932833735231421
-1.216626720655233
2.110801319707555
0.17718761011311
0.4052731130056411
1.4306494228098887
1.3091794075725467
-0.552322583031441
-0.8246799199150284
2.631157822824614
0.48746402654868826
1.3489232645260811
0.9388408005252047
1.324645001502036
1.976722401100624
0.9507828055376126
-0.9420460834022086
1.1967470661959059
0.44554112948084024
0.3746777201848638
3.0221922747858407
5.9546798631373665
2.116638458441048
3.1984858371840583
1.9097178758092412
1.0497421196869618
-0.29263061533903795
0.9396397534173228
0.2833848657219621
2.4008412116954636
-1.3372582160775335
-0.4069462428170911
-0.7557896543818647
0.5024086987803807
-0.679111278748409
-0.3075341440033952
-1.2917353935273106
-0.8796336643616893
-1.3939222566317873
-1.1836865111928003
-1.6290759265886856
1.3839628188195618
-0.4092516061186144
0.3355732863765192
-0.593932770353652
0.7146712760896404
0.8175098588516496
1.137733802901289
-0.7457257294913686
0.14675788410908608
-2.4277450464791146
-0.5993423207664967
0.27741833302495666
-2.005528234571405
-0.6182746067748068
-0.39416254972025344
2.5923756528365276
-1.087098616729427
-0.05892335437580387
-1.2633747241229463
-0.2303248549617069
-0.2827677301126264
-1.6382998789817758
0.6141628184359398
1.331539662912347
-0.3632327724930856
-1.5378531439704455
0.07740638719833803
0.3282934952169904
-0.3391716233504986
0.06939753115429972
-0.8079140707813773
0.6416118985737456
-1.1535874653066058
-0.011968487101256642
0.10790366869470036
-0.6364824066150682
-0.8302106228691377
0.21998957540074537
0.028086774097373562
-0.49484306328368544
0.41274537318114946
-0.3201629870116796
0.1483230286824875
-0.3487115395354343
0.2867115463714731
0.04049016413515545
0.11692865691097735
-0.28051535585058784
0.5834179146821645
0.7462922509554097
0.613843517201874
-0.03931657154668197
0.21540447527937445
-0.2833504320011664
-0.8754454072862432
-0.8455635356867648
-0.6324360013460244
-0.17708612743962682
-0.2992376146870209
-0.03973919818574853
0.812688781065462
-0.3523489441683968
-0.21190433942448567
0.9205956119603383
0.5499726451448287
-0.5049482940632899
1.0146421037613835
-0.655735061025114
0.6021936985453663
1.4728634277116985
0.7326081733701869
1.1535089129349405
0.5899415727986944
-0.26568286749776726
0.5854510431304769
0.09614198817511527
-0.7448391190772516
-0.09367717060568255
-1.1680724387586445
-1.2913924826843541
0.2377207439473632
-0.3625767455020079
0.3148958206034106
-0.8979279241781918
-0.6913418074340422
0.3980117037340849
-0.33912665405419573
-1.467033553178303
1.0300806152138218
-0.2802672463771956
-0.9745746162516912
0.24565876811370313
-0.40921317611211105
0.026768311204274392
0.5781624060315932
0.031754928404255256
-0.9435910950338129
0.7723839891041758
-0.2627818096460336
0.47226422595727346
0.8018952317283019
-0.23002522912540552
0.32979016208205997
0.3756960800956216
-0.11204915827498435
-0.06450576990142173
-0.9714673566768222
-0.3551112020089142
0.23846569859934869
-0.2342480648696581
0.22144451727079584
0.9219046287689254
0.3449814301295378
-0.12602504764584396
-0.23001516230663938
1.3401895106431638
-0.46324162347253584
0.6821127799236804
-0.16968012833781057
0.18323274730768313
0.4187660992985779
-0.28053625317426834
-0.9549253268862292
-0.010956068272978153
0.4023689176396283
-0.23355881957352637
0.4277681194266811
-0.405740610174295
-0.2985507223642835
-0.08164976716907735
0.7905103932707207
-0.8686488609836039
-0.3282747079526102
0.2450300251457923
-0.48865903855341786
-0.2571550194485699
0.42338168683276334
0.16619148901958217
-0.17943789974707924
-0.1623115446919987
-0.6896176864257992
0.15814470225882246
0.38364468193209456
-0.7644241879136873
0.28688535750906535
0.19255102399452365
-0.12111625234209779
0.5192262518512853
-1.2690513271992903
-0.9157152348563653
0.6558772436076512
-0.1487774591992025
0.02079487342731673
0.28609220365481197
0.3447019179033397
0.5442578549807114
0.5990535352476551
-0.37380960391141016
1.6796467922022569
0.650064421635979
1.3036591680160026
0.697630787433707
0.8135915309620199
1.1711739040879166
0.0882528982131024
0.056093677371390774
0.5188643796430644
-0.638972277362007
0.369434488072114
-0.34540878825049376
-1.0065502310616887
-0.36844887666896187
-0.20663529876392034
-0.7448151983533708
0.0008145377827299405
0.2208013123853759
-0.9051293829031926
-0.8443422399088927
0.14008085717814334
-0.36100844037694796
0.6290801952996391
-0.42861950623330314
-0.41185940432989154
-0.0023253576000958065
-0.4656778093318546
-0.5657923704238534
0.3188506974441644
0.15128140516988065
0.11453838992322404
-0.035991261518824175
0.5748617572240522
0.0048101581955134615
0.017355269634673556
0.5076040857139826
0.2790993577827202
0.05457404334210502
0.39396865765895
-0.3712731324319305
-0.924372656943093
0.47864882443067797
-1.123786963551116
0.30045248600562235
0.828460937699363
-0.6914606117256269
-0.8689327056451011
-0.13964765316291344
0.10658608130904207
1.245384719060254
1.5642956502917156
0.956124115827253
1.572058495432133
0.5731169141518173
0.5576240678204372
-0.1736080469879639
-0.5642191525981091
0.5443253666306334
2.26120969249802
4.077999723762853
6.246976961882735
4.869928413185494
0.24982632919191122
1.4427174588362144
1.0470505163822714
0.8652956312731033
-1.2917765118933042
-0.40820183323756004
-0.6830776912171102
-0.013586754208249091
-0.029036793927086205
-0.15022667207647578
-1.1895183219393735
-1.2162395731531879
0.22924093679306862
0.25105815675003584
-0.018580067627039565
-1.341803930772636
0.78644805085531
-0.1997450743647755
1.8571426661369133
-1.2340852463366851
1.4835814340138624
0.33888346665499836
0.845205231716087
-1.1630647369409708
-1.5037080720613594
-0.1069688051327492
0.16710429706749946
1.4470189255239159
-0.654754358761542
1.3123106356757506
-0.38000266120329995
-3.3689585043059957
0.3218620397611287
1.2700506160757632
-0.17430551531247898
-0.8909547191304296
0.1310437386888141
1.5971488157723042
1.6290812451399908
-1.9988329901216582
-0.7887121378883011
2.9407015069279736
2.547472495694327
3.2555486034265653
2.9183675941463347
-1.7107233707872038
-0.686013250753663
-0.1303620273158192
1.1304694949008316
-1.7276564593918315
1.2643641470742795
0.9437245719809206
0.1844542705311537
0.5916309143638623
0.6683894845557887
-0.6291748194323251
0.8836662313855405
0.5893952224686885
-0.8986346822438736
0.17447781063051743
-2.0597225947800677
-2.171628041972004
-0.041306516639696866
0.723190548953891
1.3796598754543221
0.4007135302431151
0.6268831711185375
-1.5977115287341799
2.0501105290603414
-1.2133275287259289
-1.6284290330339517
-0.45106379810326724
1.2888556693338948
0.624362305965587
-1.121586298213554
-0.6432996614680946
-0.24123428484318973
0.5284418520800437
-0.8667801293902754
2.5577237259991814
-0.32131212755363636
0.2832443045758621
0.5350789107880558
1.626939120169627
1.3170843925709987
0.035014692760309885
1.6595373581974417
4.591443152870644
3.5678376718447438
2.1958554215948283
-0.650920071475074
0.3368671225898549
0.40634362596989654
0.8564402959824645
-0.0707723619138716
1.2327911814443677
1.3549712301581915
-1.5994285698659934
1.367333367251806
0.13700114213869055
1.4805936052053252
-0.46018013102773603
0.030075813609355323
1.0961106490684736
0.20250793024289704
0.8450018829391961
0.16378131038842098
0.9248666224588695
-0.06939571542035594
1.375284942403499
1.179284436416263
1.364503657476002
-0.7300844377708529
0.3414210600303716
1.1344067927337604
0.7292821165070839
0.3000807841587402
-0.7696145186314173
1.2350032811083371
0.49576329770618854
-0.4691441195840317
-1.0307824524752187
-0.5169354289593763
-0.7687808765596789
-1.5289315345637597
0.8637157961142091
0.5461813652817099
-1.0442068248819085
-0.11205412375806101
0.3297854873921954
0.675548379206063
3.46144886521603
6.945743648632026
5.743057100930882
4.804557352949096
0.8988611223270713
2.3800910224994354
1.8175847314921016
1.2037844232615766
0.2495573576292035
0.5400941728409349
-0.24692618259055488
2.388090708439305
-2.254322477664625
-0.46836890731207903
-1.036969958144963
1.6201559598760635
-0.11731259358086915
-0.636711017974377
-2.188619695485825
-0.7539747893900711
-0.14418693750678896
-1.75875095818508
-1.3169258399560153
0.9249584709112688
-1.0005052138023225
-1.6506923273797691
-0.9896924873664508
-0.4913391059686212
0.7749426504423682
0.5711121666140114
-0.5007024444953586
1.104884735972145
-0.16851567563908182
-2.159797374137608
-2.363297243452134
0.46530841283143026
0.02042264899088564
-1.485012891243921
0.3778479640839635
0.8154709836700931
0.6110911089225355
-0.7877680931460277
-1.4984509872408007
-0.3730554986878904
-0.12021091776421579
5.624713004487462
2.999581179123806
3.724472275371029
3.7495975470169194
-0.6896689361415684
-0.8114299753605867
0.9034009913235751
0.4972119986250132
0.8074114691947268
0.4869444049770563
0.13283692368828653
1.1032717484139696
-2.7460478873782748
0.461721795012536
0.47045364895352854
0.5286998902976756
-0.2726080559497618
-0.5090694204900934
0.23668380409585532
0.0016281497615960733
1.2510910329741551
-0.12692447623706038
-0.770569334531955
-0.8516465599548184
-0.9224980445339479
-1.150304334197462
-1.4906711130056802
-0.6764866454967793
-1.1905405670646396
-1.7552822464493962
0.12119989006979165
0.2018313928222667
-1.366587510897921
-1.1663059990859623
0.5506232769977506
-0.21778324616673062
-0.3755438562306486
-1.1886390669261016
-0.00956963714682868
0.5255686737939853
0.010719927557826692
0.5432383688261236
-0.582507861640134
-1.4507358965992234
1.0418508445977965
2.775651132067439
3.5009966907479746
4.984529160740608
2.04823437833198
-0.3831520559474375
1.699951291753974
1.9485092240793946
0.3895743864805936
-0.5921721590580535
0.13662513638691193
-2.4126263210538466
-0.6388683044012593
-1.3680928774378576
1.226166019044138
0.5211383128375839
0.8617040874406754
1.0693966093929002
-0.3290405525652473
-0.015169586264407321
-0.5250172283792993
0.024229534624367492
-0.2542347172305152
0.6880700529572488
-0.6297167066204105
-0.39276205912893297
1.1611026256225374
-0.35797122070102994
-0.9598151720903617
-0.3044102335150935
-0.6948241381209923
1.4625282890880997
1.300711062811761
0.6858634881208154
0.3410694826901897
0.8234377301033212
0.8979376953236176
0.9542530638359209
-1.004780837131446
1.1916839328518622
0.3902390744514471
-1.6335392937779047
1.1964904873024178
0.259623737550735
-1.7387168581246562
1.2165685462579228
4.118056345450289
4.492670654660249
2.600037460514195
4.576254911149035
0.9196202116680918
-0.9269214549497569
-0.1592082468097524
-0.2988337543141115
1.9298129925452596
0.7745115821527638
-0.7222317257808848
-1.3800592716397886
-0.29438901736928036
-0.32621127188276905
-1.254090693469892
1.0119325089731328
-0.8974800730201917
-0.44180739196302143
0.5793762103636715
1.7764055761514805
-0.21243723293571976
-1.2280965073204404
1.4591321230871168
0.1474878127398126
0.2822394431465943
0.9789158083548544
-0.3796188718136416
-1.777817955429583
0.012926096088776776
-0.49018133421969007
-0.24406738210808154
1.5407671069307975
-2.2648175940807325
-0.4340232602728267
-0.0119849762787535
-1.999321179529444
1.0657447374344808
-1.5936713665708595
0.18877552232890338
-0.15651951599203318
-0.2824117179206411
-2.2735908699689062
-0.09915827876067893
0.26375327136088633
-2.287520808614558
3.450912297671958
4.369734908341276
4.5496682410743094
4.7198615151946495
0.4536269470897593
0.7643134826122947
-1.0047204771468494
-1.606762484646405
0.48497987234222284
-1.436967831657956
-1.5119487072406155
-0.0491152134480394
0.37090725422724424
-1.4339959753415756
-1.4350292450597637
0.7789931942934996
-0.9780425894826301
1.6859616378650863
1.0663559416990578
-0.6534500321764973
-1.0369961500235938
2.0895146251374226
0.9380918901434275
-0.29934467373662405
0.6939492845205919
-1.0061930266264933
-0.15829597181852242
-1.7089989765877391
-0.6497042013581947
0.3425880460589771
0.3684056423327793
-1.0712931111310782
0.767944380694406
0.9195416981803565
2.1072707547251364
0.5452168118771772
-0.6914229317380213
1.461100756567053
-0.839750367880734
0.013510025857783658
-1.7179491002037144
-0.27485871560612424
-0.3055324436347838
1.1729124654424168
-0.3535103507406517
1.248800719075566
-0.4299290673417988
-0.9681467191205089
-0.10456616269349633
0.6692046725234101
-0.5624135211364026
0.7144950645622768
0.7835493162703124
-0.07412776730740779
-1.669082798589296
1.9037510211899853
-1.331007085314877
0.00803085182009855
-0.15874917509252218
1.4821878375541242
0.5980835773157792
-0.5400823547519406
0.3559213221966798
-1.7931249075918008
-0.5479510617050234
-0.3421562209305993
-2.32430335214832
-0.4199991982874608
1.3173340166893608
-0.7299993272100275
-0.7041265556525103
1.8929291636709298
6.054495186665101
3.643951389820037
5.384665636268148
4.573431721692303
2.636967437803066
2.766293750787693
1.4681945454589846
2.1451633181054044
0.4077938586274739
0.48515714448422814
-2.2286661781010224
-1.2611198748453079
1.1340619840923571
0.5151700817737725
0.46920572422603507
-1.1470262251554475
-0.2798732587442552
-0.6642844776360052
-1.757286129445602
0.1685832818489757
-0.9052221527929145
-2.0408921723518594
-0.8735807603743216
-0.9915252760873161
2.2128018485431387
-1.45364543463455
-0.4091864887571822
-0.0038143493047043675
-2.2980884186729327
1.1486773889213422
-1.192038775845623
-0.2370194516934454
0.37301884896749377
-0.03003263063345718
-0.6422054084671955
-0.6628421444787242
1.6143198502323766
-1.1504623497611786
-0.8710447307053059
0.42149392833518945
-1.0388550479102368
-0.777739024459303
0.3508507223588198
-1.2966996596871314
1.0220972372049109
-0.15113277166501438
-1.8686892257251473
1.8030346137452196
-1.6103312398389875
0.6020843321012014
-0.2645721152692835
0.05420886004823765
-1.7144676855117182
-1.1837322945626076
-0.20414121203614877
-0.5749780662779894
-0.35433191936677416
-0.6697972829224892
-0.05703854679007836
-0.6044206130432532
0.7717678229479109
-0.24213288415047585
0.6187678898745621
-0.3187600056702375
-0.7985237592671397
0.4390308563192901
1.3271931914433708
-0.4702207525678411
0.09349638151181272
-2.305702762057442
-0.6468250126248016
-2.6508772092291033
0.9291833512854466
-1.3633005832083118
0.2828292836199102
-2.586352341193119
-1.730369486564371
-0.32202415692030933
2.3133369427100665
-0.25728408928361807
1.1578105611136997
-0.44934824811443835
0.4651357049083711
0.5697348333488506
-0.6630112498908471
0.8416628305757723
1.2388808566734542
0.7361222055738561
2.044308198624188
6.608690746575175
3.3728414019053954
5.010273933939974
5.322404199391247
-1.3389631844090863
-0.3764810112622812
0.026742453008544886
1.4179017026691163
1.5402589269555462
-1.8941781741097492
0.5017372540319994
-0.5648858459193924
0.7107231299865553
0.25935798159954376
0.38250684330432466
1.864918487069108
0.9703024996054784
-1.360041847072631
-0.3766396317714951
-1.9114665163971027
-1.2297274743348574
1.1736393603832147
2.128786468805533
0.6406661774761728
0.47316953603308654
-1.3095487637199363
0.7555481869011992
-0.014232440225757204
0.5183828841130048
-1.6948220122229114
0.027472895450086465
0.2538163118938487
0.7441266371893527
-0.7316502811990517
-0.8644198542467377
0.6994963807846428
0.766023829605113
-0.3372620825071731
-0.5247552813373314
-0.12559077868640867
-0.2664714796914991
0.7229441298554828
-0.07957877070618008
-0.34669458381855195
-1.4105639592603432
0.058701480319107324
-0.8691658857164997
0.1447338085548291
1.4848462751628002
2.1448150676274897
0.08767918872487179
-0.5635856909688539
0.43470223141852066
1.2422159501197088
-0.11449266985635473
2.327710334020778
-0.18669773779580645
0.13182547612135076
-1.464798664364225
-2.444471495387637
0.28526584631006024
0.29940560330364596
-1.182890393717062
1.5495694891590905
-0.3114070292505583
-1.45243645061568
3.3893090654510063
0.021363700076427072
1.1901787661489343
0.23583553056645368
1.6110709234755471
-0.36659733978149556
-2.6628437183425566
-1.2516489096967491
3.2208837956763388
-0.503151211509208
2.033226894395165
1.0788932321336953
-0.09350101230636171
1.4186353487866594
0.7877038095338357
0.8506162979638946
0.8805411876139364
-0.676481111102218
-0.8926035577784793
1.3916747368030729
0.3440505368234583
1.9070649148818997
3.8466995726361177
4.705956455601127
1.4686951362880567
2.2666168689579096
4.763803837053611
0.7737003682735637
2.99563008511233
2.0432205947139366
1.2043070004686403
-0.843471653686733
-0.9750260870291445
0.4656473687561715
-3.0949708240419342
0.8867804698721533
0.7242480369174359
1.3241702227133918
1.9767165781536797
2.0213056910904275
-0.3321646313365566
-1.5110439032324516
-2.98391070948607
0.30159710277739804
1.3106407844266525
2.906311608420684
-0.39310662009618536
0.9679056953507341
-1.1432172226195694
1.6067524094678862
-1.707885557262736
-3.343699100587031
-1.944795426434989
-4.496354254821139
-0.06659653927499193
-1.3579099606590024
0.001562054011123859
-0.8662175823943958
0.07716599017188475
1.5587778184428442
-1.8427861052559895
1.5515674975348595
-3.344467847982431
-1.6184391707472936
1.053656692548972
-1.5997722690429297
1.8479536653477315
0.49267989674369456
3.69026281511681
-1.981394998227106
-1.6737769607872524
0.2032859623026958
-2.5286389556997944
-1.8010498956165275
1.1708612932266091
-0.29701236654368707
4.758907243721087
1.808570266051631
0.054582495341303106
3.8681086884388014
1.1163269958272508
-2.600747704699497
1.9761668623974982
-3.1220653184942275
2.1467869553875576
-1.0121226226711815
-0.632454191175857
-1.1892003180064359
-0.3015084304628661
-1.2419104352335826
-1.8331048191953379
3.180270186934682
-2.8195628831421136
3.6295553450960023
-1.544680062514711
-4.1454809958442524
0.8646049415528
-0.18679243781814087
-2.009398040689802
-1.9729393159104363
-2.3178170806491676
2.157945741319394
-1.276545563673113
-1.105770977442068
-1.9727305600584177
-0.9492835491099011
1.592283244807212
1.8618707010056093
0.817964260418148
-0.12396090654074496
0.43702262766677447
-0.802055716793777
-0.25008159919338224
1.5139398024560564
3.9508897051540353
-0.6914704543425825
4.645649299175547
2.489738088905939
-2.1484171212178533
4.0013622701096745
0.9148302351640708
-0.4544214258088971
-0.46978099653534405
0.4213439370671539
-1.7384282726794256
-1.1130116041153424
-1.2625713804708394
-0.13500497674601197
-4.465023712847394
-1.459183714520377
-1.573535288432606
0.3433535048366651
-0.9856286655026659
-0.5224853215602816
1.0685382838093367
3.197695760042187
-0.15196401444711724
0.38462729804845885
-0.20892837662732067
2.0501692044521986
-2.4917534599147917
0.6363422949790393
1.4521764682978417
-2.980390778898281
0.3235338315673254
-1.1398037324852668
0.6837127767694129
2.5705806927710797
-2.763116527542503
1.530624642473666
-1.5878267724903
-1.596482932523389
2.625553699794768
-2.802626471296461
-1.165504862897254
-1.9069627763916095
-2.503043373949576
0.5313606965407746
1.5358093259118206
1.1966938030265335
-0.8227990757913014
-3.9321674260799164
-2.0053246408223147
-1.9917043652488122
0.5608250686324502
-0.6959017291623147
1.5515096488989863
-1.474191266391748
0.9873064891409009
-0.01847595206698152
-1.7796911957505919
-1.8410717159405978
-0.9732619962021469
1.9217109717665048
-0.4718087358036247
0.0988027567122935
0.12603959293270758
1.3612804533879128
-1.352137826527665
-4.4127384849389095
-0.3166243302719423
3.9615440799426227
-2.045373440320041
-3.4655606167238875
2.463673765242921
1.0813780807017341
-0.23886824375103438
1.9543496968648328
1.9565653919818473
-1.7443804159841063
2.3251684932849295
-1.5362846992264223
-0.8666425938068841
-2.3645452190690714
-1.3642432788181196
0.44478208473164416
0.3111341826391665
1.7058485206230234
0.218957910198366
-2.180437665725695
-1.7495902844005145
5.087675457363047
6.645288553675681
5.578519108685196
3.811196280135079
1.3187569429148973
0.26740220780196033
-0.7337233368350373
1.2782379359863403
2.840680316102774
1.3155015137366686
-0.34160767190817165
-1.2115468683888995
-0.5997152641175606
0.49488431090440876
1.6248579445394937
0.03508556458473833
-2.278237376753563
-3.670941873291223
-0.9462991743044582
0.8857158188161847
0.19812280956834205
-0.9957197820916559
-0.7314784541769829
1.6705021648825755
-0.2834434057304407
2.8119921616829706
-0.4297120986767956
-0.7732137475360188
2.9840949765594935
-0.64070121251955
-2.300380524547757
0.49227499462170976
0.06665804659797367
-3.2038081487365013
4.044824407473753
1.352937149698041
-3.3064809474057792
-1.1230520399835018
1.2923114788271672
1.7042678307339518
-3.729390736360818
1.2077927426103232
-3.504765177219841
0.9301986670213251
-1.9895835781083528
2.2401464589291264
1.898970589121695
-2.741661492691425
-3.6706835853704463
2.412916390463839
-1.893791001639725
0.39135118846893285
-0.3578039670812306
1.7732401521639962
2.340527660128273
-1.206274828436376
-0.13203564092310907
-2.165784882233347
0.12496885090585333
-2.5782068982567137
0.30359223251081524
-0.23426839152609202
-0.04208195230555173
0.5498504517872239
-1.413664482198537
-2.30423422777441
0.11239501606637975
-1.2755472766390412
2.0139975800210097
-0.27157904120486265
0.8703544110998246
-5.136091382861092
1.4041258949091835
0.8596327766534769
0.14159231683313175
2.1656796695475706
-2.3698401779007714
-1.2189764119291837
-1.7746075161981427
-0.23725761113979302
-0.4331524694349912
1.4504441716181518
1.052465655965111
-3.6589698471137253
-2.2635561314955543
-1.5478669506968887
0.8902484918049031
0.061650216781939604
6.225328622765304
-1.747659689575693
4.348161345967742
4.905471287158358
4.534000885888181
-1.0991780696624136
-1.657090292584556
0.880542453877001
1.04220431672403
2.691346349466627
2.5339019702773067
-1.4020515581487734
-2.0394587478627932
-2.276229974511762
-1.1166815225457047
-1.7253457571889919
-0.10837709550914598
0.03589281128283647
1.3405976520676752
-1.7176432602595488
0.31010344303042364
0.7982914860236733
3.449551472477489
0.36509808148077844
2.4361249105512117
1.9412861555962921
1.9703877642146235
-1.6476358304591727
4.952387649713423
1.369959619292221
-1.6033267726044556
-2.2427425945017547
2.4809401555678443
1.8039086699472224
-0.9704886584647012
-1.2601855316571982
4.102053525969426
-0.5921050637053176
0.04425738308824331
-1.8617172461859663
0.6248260480167611
1.3632036680506088
0.9862361743277951
-0.45145905092795063
-1.2411193473614044
0.3662660572727042
-0.5194774667675909
-2.0032605474772076
1.1385130937288492
-0.8086070773184422
-2.004138268587534
-2.609876220003126
-1.2031205949615562
-0.6165813756706099
0.8188460407319189
0.5925510048926682
-2.3463599780771958
0.4250121896765009
-1.1874926894700426
-3.3550028471859843
-0.8892613188471268
-2.235801788711245
-4.7895258250071615
1.45049383969672
-0.666959093949828
1.7558337334760012
0.9333354709588403
-2.8487580425108443
2.175465868989502
-0.8608814859252695
1.42342738935409
-1.7024632526678434
-1.4986179329602716
0.8300288519302844
-0.9470726052069681
-0.055566354595650014
-0.22690396373862864
0.4186163163487167
-0.764885708546142
-1.4162112605624946
-0.03259765209496723
0.934462528903567
0.5810669651327839
0.9721649000402959
2.4001459296526453
-0.6884126408621176
0.8427191464197296
-1.497939059668274
-2.6969863062227004
1.5580490734393186
7.9387026542277805
5.879808484143347
4.796156143827368
3.724943834235215
0.6774589741118894
-0.5000431018069753
3.1130899838732864
2.5627194175014614
-0.17889309889476557
-1.6265286717424539
-1.9399423974783607
-0.3959944953156023
-1.197414812563542
0.6902629100652011
-1.4798786249332392
2.015864953177971
-0.6469758764962715
-2.2185617351315625
0.8253284651801592
-1.697746982624259
2.14094664524649
1.1785632129888244
1.5104981824502044
-2.4230391116899748
0.32839800633104305
0.8352162676306095
-0.06673312912739171
1.1736627543396276
-0.520307140882659
1.6072478990946542
-1.634319660340672
-2.394411639227577
-1.2143978649969416
1.4563491936985176
0.8851149999381831
-1.0276629812502123
0.3280647595601479
0.9307092012651415
1.173249618053338
2.02034520783697
-0.43254304453732495
-0.19807338386523954
-0.23799909957153764
-0.5801146386161994
-0.044345974230024954
0.5273392688045302
0.5916720132087993
0.6843917867481537
-2.6335447679258803
-0.4330421995233132
1.4732304016136661
0.8732040871823118
-1.0917197339652516
-0.16800846660422755
0.27619439296216874
0.6096885653666817
-0.34729240297885694
-2.86485511519467
-1.1808965422082331
0.31365752367899746
-0.6338952749588069
0.10103540998112209
0.0010456563633015614
-0.5575263694511345
1.0077853187220946
0.6216406982748034
-0.7787922696066011
1.3026272387710063
0.24980716102289155
0.2409286292122541
0.5726661040705766
2.3262575414130366
1.8990888183082335
-2.638646562791493
1.9947188694783662
0.5108982686184933
0.842314811355467
-1.5331974679670712
1.6532966520816315
0.9915762661976631
-1.9647928365516791
1.319590386133184
0.8229221441543197
0.5099578683751977
0.9564127353401262
-1.2474953218323446
0.22615691505513802
-0.01610532983845958
1.0243261236330747
4.328569068412522
5.066208718465404
3.9782474908362344
3.2850394181826363
1.744028263148978
1.2894461031229054
0.14765161138537491
3.406930165284459
1.781552849481117
-0.8877857415950122
0.2102838086243637
0.29546988048794054
-1.9261868951717638
-2.2662371222324214
-3.2311218401464075
-1.8411379297163846
-1.0486460681482506
-2.728442893583926
-1.363369763420562
0.24896364024105108
0.36752237062125903
-0.2771960466101463
1.2476319429490144
-0.8579087011992382
0.4070327622371549
-0.6416750551573748
-0.3587458066709188
0.34578145356152695
0.9698769305026008
-0.5717789025764112
0.4755421711369391
-0.33509239559827314
-0.4162658896765814
-1.0652467784602304
-0.825499230326959
0.9402653055048642
-2.2905608109658466
-1.461483118193077
-0.6009547751990851
-0.7739268608778163
-1.2091239261164233
-0.1383923715298686
0.5284375748710204
0.06834861778635762
-0.8145864586249566
0.644006891563326
-0.05901829426819491
2.483282317698451
-0.02397315268944822
0.6281820836653866
-1.3915081172159438
-0.5387337617581862
-0.6948496676984539
-1.3902998822337513
-0.14580983610233778
0.18712234936384442
0.8570955230400541
-2.343440859923441
-1.1064789719296804
-1.3348168939007028
-1.7991744341508624
-2.7962592212266926
0.5850110902860152
1.874783518339763
1.0919019766602525
0.7756189936345582
-0.8273284001454244
3.339572596372692
1.1964027252420342
0.07843601365986708
1.5176283236011752
-0.13215085178216884
1.4446546874919146
1.177787301503687
-0.9512249621487601
0.4264728527134657
0.5276721938180201
-0.10395970871178103
-0.4230620813139324
-0.12908283140526305
1.1904341977066404
-0.24141914832596112
-1.923860843177678
0.3102435554171297
1.5295589184615968
0.515623861077077
0.9697091201255771
0.5982039638028035
2.805850438044796
2.6286307978921775
5.523606115246063
2.2796530296851705
3.7314713568984965
0.3092414465573648
2.5969322548230345
-0.6873745753849694
2.058065494718919
1.3436170905062563
-0.4189741933194171
0.09959404168956304
-0.017006642611619882
1.1189663965123513
0.07307732087426044
3.4003892379100034
0.5666247317887413
-0.3871226057604129
-0.4015296849435269
1.6183763054695968
0.7759470681627416
0.47658797292189525
1.1890960587459802
0.45054804747824506
-0.11333948037231256
0.7613630169616803
-1.1383231358912709
0.8810535116243442
-2.366596741633046
0.02296230835841695
0.2994435170744272
-0.7811435533540565
1.3023225561056582
0.5043361057393912
-0.6397950189960273
0.886619111013093
-1.8863736886609408
0.4693937667447003
1.0464606430613062
-0.849154880137086
-0.9303283222516155
-0.8378379499480012
0.06993260493065359
0.4610793725021052
0.12235014069094166
2.376926265907661
0.2900848911156195
-0.8509876341189595
1.7858264101563355
-0.6885649878190108
-0.9877760773682085
0.3396130922968086
0.993014919287183
-0.8791384516115516
-0.1369305470017558
0.6200355255850653
2.5259383905167607
1.217038712512279
-0.20241654735280812
0.20584738988210752
0.3121859391587358
-1.8791462279320001
-0.5468356419375796
0.47501581003986976
0.5989384259259867
-1.9749733200309314
0.34399098273260537
2.081663464672947
0.5720604182557704
-1.7908646612343395
1.6504620235996796
-1.4851692489615873
-1.6661261408674066
0.8490726685612295
-0.42274326385059374
-0.26286414199084374
0.38228142202180593
-0.5016149252500093
-0.8237500617449305
-0.942767667957799
-0.2150228604804585
0.7281769774545068
-1.0122762707152204
-0.9187343860842093
-0.13386886285092975
0.9540977477902073
-0.09984057591820789
1.384536743738555
1.0898038094642908
-1.9972166673045375
-0.7519870613183303
-0.3853488309514071
-0.03262691288541564
0.8891626378354487
0.6577940238905297
0.8230858901398564
-1.6560257561303733
