2.2828412131661366
4.710223344071629
3.1097873269601806
4.626105164232901
2.660481503217428
2.2912504809058345
0.8842614620603708
-0.9857178129453824
2.020190211296131
1.5462938862170423
-0.0019989172454714654
-0.19581340361547042
-1.855386285901488
0.8121999604267709
0.19306394514080719
-1.1511014188721123
-0.5950148261932707
-1.112871246087785
-1.1673285543781278
0.23567672878872475
2.005944115819106
-0.6518633087054264
-1.017231027340335
0.7764291728231358
0.41100767701771324
-0.7799737181485987
0.0863453429808573
1.4972493650606014
0.4806952601020389
-1.457015004220414
-1.5027178503643592
-0.19934537808744188
-0.6771559877096949
0.17039760293457604
0.6119452108606226
1.4996020687158704
-3.1045725199768848
0.18060222261218556
-0.610449090676756
-1.406320265435945
-0.16855346251705194
0.4129312291770711
-0.6671588168174447
0.8081750995390514
-0.21911090702414338
0.7830992723179943
1.3325447889153277
0.8321695283426321
-0.5083259292134541
0.1443469985279395
1.8286233927674722
-0.5255736745282564
0.59601009233032
0.04090103993019982
-0.28159119696180107
-3.052420400824791
-0.17980103105876272
1.2533412032689606
0.4181172225950467
0.09471379689454074
1.3645201397782336
1.253967112289501
-0.9879202775899192
-1.6934863944921275
0.888103271072721
-0.3924648006001915
0.4078525238580547
1.4690327005181274
0.22176546599244046
2.094189812463242
0.161997747135166
0.6409912030154236
0.02936491642676764
-0.34751047249567263
0.4904388924996381
0.568195319205359
-0.7889744478436258
-1.2962687346367088
-0.08416765155795242
0.8897090263174742
-1.0952577819994367
-0.36084720672025583
0.6661789066166801
1.3588875352293255
0.5555976219567202
-0.08295153948118264
-0.2523462926882434
-0.40713498158032524
1.33862597993126
-0.6441918214452136
-1.4287310254132075
1.5114180506443657
-0.979443189513838
0.2452736774865886
-1.0461029146075493
1.9952176659101588
0.04405786030997472
0.513981431023533
1.753458336906002
5.73966787789724
3.8792435825767866
5.888793333219681
4.566137279572803
1.8790883605947022
3.085810870591652
0.8039838249062352
0.5480869206406427
0.9990788739433135
0.5675806164788002
-0.8121458979300633
-0.2720014126351021
-1.1983106982091463
0.755290072447097
-0.6918140289389373
-0.5900989551575204
1.7462109949799178
0.1107919503480353
0.01293264413111167
0.29174459675722786
1.1769919475487123
0.5579318734293812
-0.49052804657793886
2.2639511843530826
0.6234914262426778
-1.328691985331829
0.40053772482304145
-0.49998826976339644
1.1908421785544028
0.7506586446467868
1.2117152867847385
-1.4381767210986542
-1.536794664231362
0.3293817487551484
-0.06077320384201024
1.0640430695229142
-0.6859287973185427
-0.17442030514825568
-0.03415176174213341
-0.8106961892287754
-0.43510618887682184
-0.7119738776594509
-0.20264169249816222
0.7771266154095098
-0.831627139629808
-0.7518714259574748
-0.47544796496917907
-1.8659809926971345
-1.7042381389229817
-0.7334084017496804
-1.6094641583620728
1.61551749017469
1.2188557511991602
-1.0409016650795535
-2.5412968190754848
-0.1975634354311273
-0.837583958455941
-2.7641025245794544
-0.8981721712855505
0.4583837281654508
-1.3419606082440354
-0.8163540093584463
-2.109862523254501
1.1213001155977387
1.3168686948072117
-0.8908069315227238
0.255520954119852
-0.09151105512724111
0.12156711736552436
-2.5105414609107948
0.673961245839231
0.9880632493306869
-0.03960700842414633
0.45500734294917955
-1.4229688765479502
1.5709702362338946
-0.39269531048103073
-1.020145680359167
-1.4587729930104245
0.8700987781060845
-0.8002464693633872
-0.428790843214628
-0.11591816259663973
-0.4636896278289657
-1.2092637746813146
0.7202089322898098
-3.1372049852563615
-1.1377235206487535
0.01060952024499806
0.33987299655932823
1.7332878912952836
-0.0984063506462807
-1.5997171297347679
1.0242513820765171
0.3719171400798942
-0.9487099799740356
-0.18670419893380025
3.093181585977921
2.369527016752793
4.40890825659413
2.488580100595134
3.500277639221995
0.17346684652955402
0.8275655811001384
1.8507299168141134
0.6905002245717362
0.9702350949224767
0.8880078070594858
0.8607122037005519
-1.1360967833495526
1.3020585141984562
0.09281517674424083
2.4253242228793597
-2.067819352578593
-2.4041751211646742
-0.38505917421965574
-0.30450006107313654
0.4070635678600042
-0.8414999898759916
-0.627607084929403
-0.6251864446337247
-0.2681311451063803
-0.5937389820032102
-1.6797200937674228
0.5897011470551388
1.2225476284915935
-0.01638729719522053
-1.3705624596767212
-1.2099082692427325
0.022977411790577218
0.729840292517283
0.4115748023659874
-0.33109251862262096
1.2965255769967508
1.0158448726947678
-3.7255225669869194
-0.5762828881243648
0.5602263807418542
2.359692773696482
1.5072220679917714
-2.0159494583878144
-1.5257504338015673
0.2870417765269678
0.37016859768271004
-0.7830005465218144
1.4284684230475195
-1.4029715555546232
-0.0022095158069692644
-1.5659640249770863
-1.8246753616728237
-0.42256852853967447
1.0779620541172856
0.9118814629994019
0.23978063225864585
-0.5718390571966715
0.19449602023794893
-0.5669607055466573
-0.6244823265502212
0.3532137952606265
-0.7063658739926313
-0.18467686201504252
-0.6397268693700295
-2.264954373581139
1.0711481242648682
0.8781363924816523
-2.3066271016818503
-0.6080110316090215
0.7376408665249043
0.7229169952144963
0.03645747147142739
0.3313673756097554
1.1188113755693396
0.09260132314505837
-0.769145242664131
-0.4764886600253454
-1.3286928329866194
0.2695780476937292
0.11764499949013985
1.3458393048782904
-0.32482346963605924
0.7149622139025649
0.012584154019660287
1.0149144481399752
1.372982466766973
1.7916218649244846
1.3120864770130474
0.13962258794066873
2.7026932420468075
0.36612373825428046
2.4521257244111725
-0.608126922851046
-0.842099243057927
-0.3695036447245704
-0.9294857324524352
-1.1799131138492274
1.668977910348068
5.1487424397008565
4.128028280459721
2.5994294400752045
3.5699065297502983
1.6811903389376202
1.3610536787989693
1.4005257735528263
0.23140955876504837
-0.5655525881138798
-0.62145319985554
2.0933154160041365
0.03788472514966723
-2.587363484155045
-3.511007280134871
-0.9466539740800737
-0.1899847959351485
1.2462753431373177
-0.9706097186600952
-1.8750977426808604
1.5825223986345818
-0.2042837229686818
-0.7614024243138322
-0.6922072860887125
-0.9484442379817855
-0.3706598205248257
-0.44973388130757536
0.017062126843948033
1.3826989073490872
-1.7832295222458583
-0.14477177484441012
0.21955518278713415
0.4747414527566368
0.798964056743008
0.6299641370681627
0.5614358759133554
0.279203645589562
0.7706573245088295
1.1804552019658157
1.660317817159524
-0.9965106805370405
0.3671215243193815
0.6932259625130153
-1.093314733154604
0.2167913122690212
0.8318390189956908
0.41411113889716505
1.6517664236305145
-0.9283101312975403
0.7462680578645625
-1.9836826353360983
-0.13903858585655401
-0.28369682149152864
2.836304394254788
0.4910304867499248
-2.377702903469826
0.6782683178537072
-0.7221587394760971
-1.9573431721914374
0.0632019778356685
0.5872375467577152
-1.5849366625784047
-2.120133903910737
0.9868991909169217
-0.19397151481839994
-0.3122374742688122
-0.006079179038300103
0.6267871826068213
-0.5293060076646826
0.294864007277728
-0.361520524860211
0.8790572804437835
-0.5611231999665374
0.7712268916252056
2.355364528514129
-1.063530863041768
0.2702772070294458
-0.6006142598210018
-0.06083571349082639
0.8210967653599284
-0.5900738670814261
0.32085720517224403
0.2847612011373574
0.27689766095293744
1.2990238822913582
-0.916507715133331
-0.818208030572552
2.5567358512880802
-0.05367392576250203
1.2276133716478859
2.4036902108107854
2.262170343200236
-0.8724031927162348
-0.9027159147933328
-1.8802195009139502
-0.342145916125311
-0.22108896277075052
-2.5211546258324047
1.946542619193099
3.1216058223447813
1.9325596494967237
2.6828121756106245
3.0917593241164743
-0.31446369631179594
0.34309651695372817
2.47477415796049
1.8293760221701807
1.7916321470804526
-0.3038257968452396
-1.9724151897140842
0.08448250062129775
-0.31992973170754363
-0.2671166911032592
1.9709095059662092
-0.9490419549609328
-0.6781214856369617
-1.4631286091616846
-0.3688834530415403
-0.0767712876634048
0.9864401420498912
1.1644653386861763
0.8258932664626173
1.3564778312732706
-2.7855305940946153
-0.9300275544458034
0.6461440446007517
-2.3982043720213158
-0.33037515584770505
-0.17518540517703418
-1.5087837232283337
1.6427836528295545
0.8408718881045277
-0.011737136435777229
-0.7272375658285303
0.5191351138143071
-1.7792605809122142
1.4334099523486454
0.15982970883385222
-1.5097509135229972
1.4261166368620994
0.10296960589421089
-1.7216479464288055
0.28213247426475224
-0.9804032754927061
-1.0788626076169456
0.5454274198265104
-0.009899742924248167
1.0854772343149057
-1.546749095330562
-0.09853571453963507
1.3426926345974914
1.1932570807066094
0.3248923950833291
2.041032520766023
-1.393216796879946
-0.09587914392442048
0.5409133702651561
0.05704884163937973
-1.8766366120697349
1.069353544880619
1.0616141522789346
0.13858743169849194
-0.964540338845189
-1.9521941354659091
-0.9364815577455137
-0.30897957381652896
-0.38315923960749937
2.1691449445932216
0.6965588893065876
-0.4510025424268914
-0.43961861217607373
-0.4570457646716419
-0.5231984932144498
-1.1876857262848746
-0.6191348344768925
0.25235490379340286
-2.5022628263780216
0.4234346236773479
0.7648399945925459
1.0967861610468137
-2.5264491591528735
0.753633161002896
-1.1202808102005002
-1.900460301987113
-0.38847367469881955
1.5120223695992188
1.4279417843312343
0.2836748170377915
-2.061094772296624
-1.218137206696004
1.1912109920685316
-0.25991564482174967
-0.7760789619256699
-2.9629009132689026
0.6799922034660452
-0.2967296644042332
1.7587136881658108
3.7114102758316285
4.233634667220282
2.771152622834421
5.437729016857728
0.5078200683313747
0.864476290224844
0.1477348608771522
1.2557071938237603
2.0559162651742624
0.3934584115851786
-2.2740244895549453
-0.8129483338137153
-1.7980051645347843
-1.5590640677339676
-0.7180395193063364
0.19510084831456198
0.8442571100168488
0.06382888962542782
-1.0437204785328185
0.4850494967982926
2.336532233382073
-0.06552319654467653
0.86955340187803
1.275779138670178
0.9335802531544326
-1.3807260762760944
0.994463626995425
0.5070435139977864
-0.4384577591256453
-1.2544950401236876
-0.16036543321794372
-1.9989469031391929
0.43738371950023336
-0.8571406067270827
0.2531897701374919
1.5920416362605616
1.2413058637571153
0.3145713031266083
-0.27372555517276664
-0.678385312298857
1.4155562896448906
-0.11916420186392129
-0.7673178186716771
3.22203038033927
-0.5159404065735582
1.4854275585244814
-0.16481826735120847
0.5102006647715859
0.8166635054095741
-0.869812457336626
-0.3674289292932779
-2.0074957075228803
-0.7348241091590112
1.117280277904656
-0.8338034844393908
-0.7198802567900917
0.6342399507094197
0.17393466374461142
-1.2683494022214248
0.6232162042154907
-2.0973719906373196
-2.240906153954907
-0.540907422944084
0.04278932753913112
0.14780498390474653
-0.640641976308016
1.0905937706889413
-0.9071802929659238
-0.8531230107442727
0.8270833496900637
1.1138351826469206
-0.13698977216968242
0.8757750508325455
1.3258579101538437
-0.15480637484689908
-1.7577871268671894
0.09483934048959922
-0.8225948011558735
-0.018822627338237086
1.0886954633497372
-0.34948662377777007
0.037522797974890665
0.8154696285813616
0.9916442837152932
0.23338038402455025
0.6188569223583416
0.8442830015834328
-1.5337264335371112
-0.3833456416168017
-1.993896435414329
-0.41629016444101674
-0.6095746799556419
-0.48568615415225214
0.44752855554650023
-0.08467391326502494
-0.944800449824674
0.7326237072167934
2.989880017861971
5.667582370724218
4.28095922230442
4.873217067284781
5.480426648099547
-1.025223054231243
-0.10269257713453181
0.7594956712535821
4.036123637496093
-0.5496027418431317
0.523815921821154
-1.5580345557955235
0.1115453065326125
0.6675686570424189
-1.4768972964445113
1.1081945419564485
0.34492365675559805
-1.265467744410027
0.5035434278886795
0.5988547684538453
0.7727029123779124
1.5910969820439655
-0.9688834006192145
1.4492283793522946
0.22338767916458602
0.2005292819118924
0.558057090079457
-0.8816849025987408
0.9079729879733272
-0.633323724646088
0.2416489641493359
-1.114502517631061
2.151355959665345
-1.711249521392601
-1.499017434657357
-0.7323556091085762
-0.2487227259970063
0.18224384439672536
-2.255942430400817
0.6538699714108328
-2.0008652805653924
1.1790674718110483
0.6256540694371024
1.1450960598337898
0.3032879428546007
-0.7052464316172868
1.7556727602055004
0.6595763929709872
1.0613083534004846
0.4962140322066919
0.3062055544587252
0.28791715315090327
0.9841665336679124
1.2952106588489973
-0.0758805552091403
-0.2847151817805586
2.3773572150617035
1.1235259216862972
-0.834710248865341
0.4845400960548818
-0.5166212801166381
-0.24344998811632446
0.764754034871227
-1.3040729125324717
-0.2240642552257509
0.2983132631714267
-1.1323374793129526
-0.17041177958926354
0.9562942187125278
-1.5721781997516167
0.6057097331194853
1.062036148774752
3.3877411931050156
0.8135673799085708
2.4738735699388537
-1.2140005022778961
-1.1876459996837618
2.0643052998524074
-0.26635803371225114
-0.39914815338169923
0.28810863214197147
0.48094662028676677
0.40450189550634275
-0.032994612941882856
0.10542044710882681
-1.2770566555593716
-0.22056054887017196
-0.4110183460822263
1.8424358497002875
-0.7207604216069797
-0.7209959342026608
-2.0833170547254634
0.7935708561211785
1.1597934138057027
-1.006082272808207
-0.4222270537775018
1.1481859503220901
-0.8813295477927456
1.7159444379404685
3.8872584384077964
3.7179635311952635
3.952297456681125
3.2892157368550308
0.20238014185328268
-1.8038767134593465
1.545207207537143
0.28164298743660154
0.5024177503454152
0.593575075481838
0.3668452181082369
-0.8540467108980737
-0.9236949579472254
-0.40499507434026927
-0.05814763557562164
-0.41207207143990593
0.8197493461551144
-1.0310291040588198
1.2324024833191647
-0.6298450877684038
-0.15174585954483633
0.1773291550337156
1.6980944952868238
-0.5993198539745387
-1.1577382753083127
0.3005363152939052
0.7875717876947583
-0.5497215401090794
-0.07716502457794933
-0.014766383106068103
-1.5749208618023613
-0.4246167688965493
-0.48117425233996625
-1.5743430180657543
0.17727590066777227
2.215546786598951
-1.7244487716702082
0.7431307007702201
-0.1224181692370204
-3.8902828305101327
-0.293926735192137
2.1991902598400053
-1.589443523504189
1.8514311342848462
0.5454085545609151
-0.7871574037061124
1.1574542474736818
0.97607472131568
-0.7463656889740672
-0.6271394649395221
-0.21219600743361924
0.6018065146490206
0.384744611698982
1.2541211279078048
-0.3757196621508152
0.5366287112880417
-1.310312710941445
-0.9795514362128103
0.38786831543216016
-0.13481361646080559
0.40359218227416177
0.47307320912653833
0.1339052147037573
-0.5143683724376193
-0.6379675158217804
1.1949267042267655
1.1317892780936059
0.3561387488612823
-0.39856663101274675
1.0388103302151603
-1.2055657740946637
-0.8808372096740544
1.1345186664106217
-0.6964211419404117
-2.1488293944964054
1.0676891897413499
-1.9986076864746953
-0.8679958860598674
1.913824803610884
0.8963456621310544
-0.47349244477337793
0.460568608803005
-0.41454616032563557
-1.145713704509633
1.1881082051146117
1.6029155959862185
2.0426280045253207
0.2073651736675846
1.4375723845229742
-1.062274513890361
1.5068431269147609
-1.2829779768626925
1.6570309843588287
3.037146858979836
4.407833297987617
3.7201311121996197
0.6503035794282426
-0.5785627426962908
0.7439147626003477
-2.0891594309896044
-1.0916278335411367
-0.40528896158692257
-0.4458344706213647
-0.8935102655382723
0.14260211832046513
2.40037541158854
0.7064096728972352
-0.3083787820340852
2.9916397428474304
-1.373655800653737
0.4471284982889322
1.4809993262853525
-0.6416779216722692
1.0346535100054286
0.7675346016501492
-0.8422713684168112
-0.20187010290799295
-0.7069486616888143
-1.890571560835114
-1.763385525947039
-1.2324932860490239
-2.0590435673329437
0.6559427886876168
-0.004737372221685132
-1.613687252489798
0.20605967593985097
-1.2143077858682292
-0.5534002098587582
-1.4345081031024813
0.2726806495609988
-1.5496570410917359
0.9978640288311041
1.7419190055618219
-0.4030093051603866
-2.030951943265146
-2.252325956195135
0.9105383142967907
2.0410710379705295
0.7131184970136937
-1.7109798877272135
-0.9271828777923092
1.390915585421509
0.05780660202257036
-0.9384792980345597
5.553087554825824
4.563660330129927
5.107612801872467
3.2009021344775337
0.7532937448735775
0.9207964310340865
1.1595462451801406
1.0032369879172984
-0.510764204825106
-0.08023761907655941
-1.253228127012881
-1.1102422220982207
-0.8228455567351128
1.5622431253077738
-1.7265817650398745
0.24033894900376734
-1.723048981204552
1.5609357234780181
-0.4526725527903954
1.1521985070752043
-1.2967375898347169
0.5671907604927051
1.9145720511883053
0.24815679321873474
0.034926532840231644
0.4669678629086665
-0.6843669487559607
2.2332465175673044
-0.6612019385747441
-0.15970894353492726
2.685575924348977
0.920981314835114
-0.12858804095680162
-0.07018097033477427
-0.9710774253182222
-0.793484081907019
0.6455481399875722
0.5841025486615914
0.8701859747294961
-1.2457775800957345
-1.3471994218808927
-0.2465852088693607
0.9408503596101295
-0.3975198608267744
0.43072745841551585
-0.017218250188560824
-0.21008746078620258
0.6902248062713583
-1.7368300769127494
-1.2195518206447313
2.430647498364639
0.35224950299336893
2.8743231730923067
4.149188124457358
3.148948715309859
3.531340849732279
0.3201682122905754
0.4235002203215507
1.2284595119159092
0.7942691464717991
1.864676605022284
0.3469991380162323
-0.6686974649719875
0.41184597046343946
1.06377831181681
-0.38521301031477223
0.21150189208198023
-0.270431804499287
1.0317632117243685
-0.06865177373212064
-0.10619734643649659
-0.7629603937920008
0.7510031150369317
1.866530980583087
0.3215348181752873
-0.2248781519184903
-1.1613756893068103
-1.0134562354925103
2.449605986428116
-1.624123121889645
-2.034344471748922
-1.9315776268200047
0.030853092342396495
-1.48370743427326
0.7081349467236407
-0.22234044361668448
-0.7549137504944797
-0.2940304865318575
1.1848597761559088
0.7559794211667716
-2.163052096243523
-1.3349274320875288
-0.8239060042522657
0.12028770518025547
0.12624036444437148
-0.32190526227631044
-0.7903765062871865
0.9908980330642377
0.788398892759006
-1.5803055954059138
-1.8031593649548192
-1.6662283341948716
-0.812000218071983
0.052912089452281943
4.645688304353375
4.633715850730972
4.228271168340463
6.130821443430749
1.1993289666401161
2.375020519302927
0.17693989195687904
-0.9300759101204824
0.377883676664159
0.5903879860314692
-0.9287263791169172
0.024608664837150504
1.3954900847137546
1.2634402298705407
-0.41322254174771605
-1.4973399746963745
-1.6257654197540872
-1.8648933189495587
-0.6404192011081984
1.5216544428765757
-0.5220035249223417
0.3234804956202761
0.7988164071473882
0.2336331253029416
-0.275948826948567
0.8537100892693448
-0.2846135955681294
0.9911741539347324
-0.09879247077389053
0.040380473253414095
0.694865889057517
0.1647988324362264
1.0933970333325251
3.5174531243581177
-0.9031211954986503
-1.6362142465978207
1.900697211111832
-1.5324970082866716
-1.484090751692106
-1.3825417392592692
0.6137251380579043
0.5836153374235451
1.0283580321279544
-1.6797018055305497
-1.6808885944633798
1.3992009388303535
-1.1118446211045236
1.6703048496253226
0.48873681091283305
-0.22881267468499908
-0.19466738992285243
0.46058869460530755
2.4048887464035946
4.975929880016932
5.114117293051919
3.291899566725448
-0.08563588386449067
1.4556483738387642
1.6819616529846928
1.2284967216741673
1.1133662056502753
-0.7088403118378453
-1.4820554232609253
0.2590114582463194
-1.2503866839562887
0.730402055676399
1.0689118465404757
0.5745198644818373
-0.9675027882851835
-0.40511026296454844
0.19156352340768917
0.8342937714301975
-0.5371120325947247
2.9169097159392763
-1.4932220498188302
1.4044019667238155
1.8303821567363248
-0.9184659585677526
-0.2814020671607939
1.7439640100540914
-0.353986090602852
-0.20826807800002523
-0.47199829912167884
0.5495518348955676
1.0114138620010844
0.7686922308927017
0.9419606619510703
-2.3467902155631837
-0.48375356453016954
0.34346662576910797
0.0641033007680375
-1.065961388505242
-0.11353896337301328
-1.6474918936134735
0.013997135455403487
1.0720956797450918
-0.3836540475867852
-1.521007007590483
-0.4269190393644461
-0.9444691973654094
-0.8538204729349296
-0.14452072917444603
-0.6955647849049239
-0.5503210992479257
3.4104372601979565
2.56077571455974
4.0156047362105065
5.7206948930212524
0.22894920922754158
0.8506911894861162
0.2709195104068396
-0.6084177312474645
0.6920766329188965
-0.5441169581987135
-0.20133934992458516
-0.4132049842857224
0.5924248409897162
1.3189797064595679
0.15621902055421522
-0.22639413490678476
1.9255711323358737
2.152089792451931
1.4716850720499899
2.16803488257342
0.14934860483654683
-0.25955016601944675
-0.1942013767600247
0.06427145074096807
-1.0407926650409125
0.9384173054350644
-0.3241249841608863
-0.1211151726822732
-3.0083628445277015
-0.8911441216970691
-0.7505579428387663
-0.4714968803038865
2.0440968382676763
0.059691294524561594
2.055561268578495
0.9731110076150487
0.28909574661791115
-0.41956507097553497
-2.084156641576352
-0.026911916572900818
3.2833648085310574
2.885192241118246
3.872281356992417
2.042401584683631
1.3359470694486137
2.0779978010697615
-0.8746548137385941
0.15510619368362846
-0.25840309559076347
-1.3371860657577952
-0.8171277453069602
-0.553855146751874
0.18310990086152124
-1.1860324768861399
-0.9613713382740003
0.7095015754474352
-1.4450503682663063
-0.43648349593454416
-1.6455851937047934
-0.320534515893271
-0.7620308658555539
0.9899507458600866
0.2124530855340238
0.0801931019354317
1.1265175682429815
-1.0922237056672668
-2.955746151330571
-0.7693502949790711
0.5384162703192186
0.18627140102950374
-0.6195464614966947
-0.16326057499937077
-2.2029225247572515
-1.2664993558811353
-0.7154717905986061
1.3222594075516387
-0.26418726633953665
-2.254097371956836
-1.2379222515683137
1.059823876772211
0.11880039196589437
0.14231124462560552
1.4683811131831626
1.037583370471403
-1.2097227255206626
-1.3736307131069958
1.3975269181195853
0.27314151388414054
-0.9129090633710761
-1.141870958023659
0.38273168669839086
-0.7149703463409833
0.452353129156228
0.4159004690354905
-1.068156593099161
0.017259168457971152
-0.06133146048110652
1.272197172461424
-0.7436224020944939
1.2899308179690898
3.1357825620946933
-0.46142863694619907
-2.0495745356440453
0.16764486433106157
0.6877059609832306
-0.7529615852699189
-0.1819763443620262
-1.369913978320806
-2.39916265002296
0.37070409274176286
0.0043381637982395915
-0.44092830554780105
-1.6235947577213512
-0.20193782920231312
-0.7006204483082445
-0.9540687811609974
-1.1111030580958126
0.1366783243131624
0.3757934215348944
-0.3248145557648123
0.2835334909465286
-0.06398290801967303
-0.6505299959253391
0.16894925243048653
-0.3641864859382417
2.810746113804782
-0.31389226299381046
1.0868567514314968
-0.6231585363771385
-0.5722507554811832
0.8265036864414435
-0.5284457231423011
2.3403656653132896
-0.9509073962768558
-0.37762189143246483
0.21515108536929395
-1.9508419290159276
2.3042813304149816
5.100766939440343
4.484801099677945
3.795454555731369
4.4929204481717315
1.1005194692213867
1.5503035657596982
1.8903230269388116
0.42438003988895046
0.7455503697957582
-0.5314016541444844
-2.268532809028078
-0.10725517960617423
-2.2242254485699733
1.8051227663743021
0.741453216625003
-1.4759697544138286
-1.2305942827905694
0.5615873257911167
-1.266558652479121
-1.2241884384062887
-0.9397506179585886
-0.6192133079537028
-0.1660412133879371
0.3991108020385474
-0.5793548480105588
-0.3777711830667168
-0.5437037745975428
1.0472649880586695
0.8712894604136114
-1.460739343482957
-0.6530348758812577
-0.018206914159861975
-1.1298455944729642
1.1512109324710371
0.0033711609356786854
-0.24371108388895957
0.4962914851525554
-0.6069454621078888
0.9661254710714398
0.0580953679544058
-1.9857907780907267
-0.833243531430859
0.930373737383027
-0.34242870811779635
0.043104381696638217
-0.4919324842856465
-1.8272774258711257
-1.3148839826950531
0.37191473117103957
1.1205116686224508
-1.7161086559745677
1.1447448584572093
-0.12219270342487498
0.3368803878417146
0.1453916131607041
0.646166313840352
1.0165338649605602
0.44312172659545046
1.2886381953414991
1.1493828291491301
0.5166984872508642
-1.4763486999911999
0.286889156159249
-0.8014884984893016
-0.43018295008814167
-1.7483667304805133
1.5140919038469989
-0.45108682519026927
1.53905719838005
0.4492049264292295
-0.8362938976588353
-1.8574108341282192
0.005885605957941631
0.30260433947047294
-0.2669950561994267
1.8719846491628722
-0.8401252942061671
-0.36565390195278535
-1.775726593228391
-1.997236015580388
0.31816601187247145
-0.5881563746523696
-0.022291065034331314
0.24801350391891577
0.38169220900825096
-1.5954032373382399
-0.4964006297004111
-0.2842865861262166
-1.3357448955386544
-0.7265531020666769
1.1194639671416844
0.14919890617344866
0.6508024715612793
1.136555359832406
1.6341025621533836
0.18290210406899732
-0.028971347869888187
0.8186257836041064
2.752656001364191
2.4086594027929342
2.7399947711913875
3.713169405102504
2.6016408038245196
2.229031326405672
2.0423974055459406
1.1654879844148183
1.6862277100114853
0.0007230982167462929
0.06291736218971092
1.6102932284821434
-2.501611671607739
1.0349906728040978
-1.3215092404375686
-0.9963550622899984
0.28643594014665774
-1.6053730176002738
-1.8608343476044822
-0.36682571543005205
-0.32506145747588966
0.33294663943735064
-0.07951254318121517
0.1925520339515796
1.221181709687985
-1.1791247892772183
0.31402788965211725
-0.8324084438140884
-0.5092485324133577
0.5304756864120957
-1.2032194563506544
1.9628844802541197
-0.994490328932041
-2.269008028708634
0.13656280310478938
2.324918151091417
0.16878601788504288
0.8694972576233366
0.4079218649339993
-0.45898743688482313
-0.22886406278155666
1.732144203031872
0.5602709703289857
0.5631259239539371
-0.9611970655925206
0.8766010641794549
0.780702318887746
0.4073773696166705
0.5329352454290308
1.5195876417649659
1.0212543425196996
1.192189064343328
1.0148521968319058
-0.7289248580022122
1.8474785195575865
0.38792580597803006
-2.0754715042126666
0.8747450282896018
1.265153736772187
-1.1727515852485084
0.9680769999451256
0.6900227764510535
-0.791108340392636
-2.315253642948249
-2.753962708616913
-0.25172665726153876
-0.8757905259275675
5.665731428768545
0.13264911111884076
2.086390626183276
-0.19073206000424708
-3.012171095130996
-4.121926028714361
1.5223971616061645
0.08846569381691322
1.7080716950618977
-0.47653615811578687
-0.5390697589573082
0.7918106492640316
-0.8184656532241747
-3.337239105783438
2.4499349877046948
-0.4593671449650237
-2.0296624013648077
1.6353926502103757
-0.4666637800822645
1.8557391632337799
-1.2399316328656367
0.913458593741263
0.23672132257539336
-1.0239004878647693
-1.4249403776324798
0.06319650910521507
-4.756272587212266
1.1573546029329504
0.5455979109323184
0.1366984167725811
0.4853612983390562
4.326582592079091
-0.12637773134448077
0.665425208336003
0.1923276258903418
0.5039860254667798
1.3799708038001084
1.2720116088239573
-1.059840872071772
0.5049397190289351
-1.3026539228405514
-0.37559955615770824
-0.2507291379802242
0.238693437165986
0.21240034622288945
-0.05379402567418512
-0.5336513614718331
-0.9841507878401554
0.2657826647824353
-0.6123471492827649
-0.36888901012600983
0.006856724671878159
0.5169415537030884
0.06630244187470768
-0.15083877509675758
0.21568705159432688
0.6016433553712417
-0.9739196819565203
-0.538508899161307
-0.9098289067415843
0.22598967830967004
1.0428377458838256
-1.4466041947518147
0.5758924245382221
1.1448539026102604
0.44671111880062575
0.39981979040798343
-1.020976673599196
0.7713443456108109
0.2889949305957288
-0.4974047037475868
0.9622910679511096
-0.16500527118029756
0.1014023651614169
0.33699424299647884
-0.5379420111132379
-0.22604790986058143
0.6049706127446053
0.19696138834780907
-0.23662289444338364
1.1256369649967013
-0.2327259540707774
-0.35123548253102194
-1.1885528730345614
0.23321301245249682
0.17351180230544005
0.4653603078982992
1.1085445380461856
-1.5252945794426989
0.0588619173924958
1.1134607265304917
0.3997078612170422
-0.07717021958817105
-0.539003247295734
-1.1085223538405846
-0.8693215974001705
-0.44959905552110135
0.14160553513754714
-1.446661939251103
-0.3923256131799564
0.3290623863023235
-0.2859593432653358
1.0453666031212447
0.09127663769569133
1.2473702871565888
-1.4748576282832284
-0.06086652919705843
-0.19607388188745964
0.10559317143114133
1.976699789052896
0.6207670823827109
0.44359354291841424
1.043705263738394
-0.4150945290521578
-0.31065808173699805
0.6818243667543155
0.3098807406972612
0.8757801365191185
-0.5806024058793745
1.180603617033124
0.226261749416725
0.8602477647584588
-0.04095468380838335
-0.4813838764738918
0.33569182027712136
-0.6616059881654152
0.8319094363456382
0.7621378004152455
1.0078958002508829
2.211151272503232
2.9951111111747113
0.9826872022042799
1.107051889054199
1.5365608421886288
0.09563583641716117
0.6017008852839064
0.23532792445088382
-0.0622644822521268
-0.9623722215499311
1.4306447127124506
0.23905083890333448
-0.3692433096318093
-2.989585631869463
-0.6112172535914202
0.040266817099983754
1.3924683125127086
-1.303569852680233
-0.5713334789281413
0.431921549933075
-0.048827507439385465
0.6138822236119457
-0.4438637102900266
0.09932683845979759
1.630967134543798
-0.007896294129689008
0.1731285928258544
2.176582471576859
0.9994280041044346
0.7261737979132804
-1.1933148825758844
-0.8310162379117735
-0.604664149089699
-0.032873429473881166
-0.38210429477934393
0.10543463267415165
-1.5269339614907878
-1.521060325455164
0.3393758265622813
0.947062342255284
2.025742090136145
-0.5024643452184313
0.5488648428020722
-0.40202120436413735
0.18606774681644395
-0.2218933361721987
-0.5460922573613327
0.1914351179307126
0.6153921683869469
-0.04174991768387715
1.0140883555353193
-0.08388398061015759
-0.2637215495432919
0.7209939178124037
0.9796678794633844
-0.7698111188015292
-1.2071627323656198
1.1589139704482423
-0.2556826810020124
-1.4841141299792517
1.1930329297467892
-0.15800302386740983
0.8754848438773548
-1.703479787176873
0.08583652879363751
0.536301318072403
-0.6182134447470524
0.4873045658927901
-0.5250253710020302
0.6914850550506608
-0.4386730013269226
1.1592645329652773
-1.209581045869808
-1.868033576326673
0.05895474200350442
1.1351278574394728
-0.10128675040155535
1.8295279284578134
-0.16891244558323731
0.2669437115869785
-0.2450936718347521
-0.32763374065418643
0.8562775366126834
0.3742789832347622
0.18890651178790624
0.1791709336932097
-0.24465904122111948
0.38547893943596695
0.654903314987077
0.2802991441430581
-0.16244953623179778
-0.18319766900666143
0.3672120910418244
1.104276347292023
1.1276753573201892
1.1800086140651467
0.18542087339182814
1.1417443786535775
2.1149184346799976
1.9391777966040222
2.254749004045726
0.7184873268345461
0.3712380189655067
-0.3991752745814453
-0.16265120450607473
0.6270211653995121
-0.9847005116419417
0.6714464821185842
-0.2615958758298287
-0.5648672097625429
0.45923957792662445
-1.021764598642388
-0.6022461385404771
0.638578233058323
0.40815714455691127
0.19073269188200873
-0.8927204989168487
-0.5025810963304705
0.8831187724561141
-0.36731996512604204
-0.4655314992414311
-1.811422787691837
-0.9125500489959112
-0.876599524062116
0.9362629688895185
0.6613703219180067
-0.04807535007566821
0.28061927527753155
0.06676819919497357
-0.7476351323057603
1.0087165140424326
0.8697928308388353
-0.7783274450673376
-0.5971728005899749
-0.02798441866383755
-0.47817765922447286
-0.042958222148314545
-0.39397608219722535
0.3292573416463239
-0.4778865848947514
-0.9359494414843035
0.1447124513059898
-0.5434766222459326
0.9256661927508757
-0.14595685097510255
0.012467528483066592
-0.47429321393579404
0.3446292700599256
-0.4980656265535896
0.3465814905508994
-0.3282305349767251
0.6339927232195388
0.233096646956801
-0.20664527924535114
-0.45298233555941725
0.21190190270676135
-1.2531619281045752
1.562702336380469
1.0644993379660808
-0.2164359474765627
-0.9951818500031193
-0.6070597681599218
-0.8627803217298924
1.422497974442347
-0.5833117076817433
-0.9049025484550492
-0.9979995863841076
-0.22089843544596133
0.7486637985170344
1.6168044940283726
0.5131223567933859
-0.10632740323844145
-1.560477791240868
-0.6901686727910447
-0.29517210514734926
-0.32063857692577535
1.1882630782895134
0.23651356339690374
-0.06765472462785412
-0.4028034069957611
0.12728465988235108
-0.21326373092847145
0.09537694580190859
-1.1314587238494767
0.31415066410057024
0.14462700033925593
-1.117177984716713
0.1753160857679523
0.46055805268655026
0.7249446039363124
-0.7897323639409202
-1.1274787160813224
0.4115481984309762
-0.8054808822142245
1.4223947341156373
1.276282273352248
2.2512301173298317
2.657071342489306
1.034572061248952
-0.11763420904946065
0.2586902780448549
0.7782848172157003
0.9259367581890408
0.7556152193660062
-0.44557857233265385
-0.8897879177361007
1.8626079951403725
-0.6350441125162771
0.9154667261477354
0.2122107137575541
0.24260967011981283
-0.7184856566291626
-2.1010864967062464
-0.514619558908753
-0.5914861378397864
0.5841455759583419
0.1774135878403013
0.9562452552628943
0.687957327394712
0.4594381251744895
-0.6096341952851949
0.6500771729793509
-0.31513324329367
0.9010076062925236
-0.12841910532354373
-0.892901553572232
-0.026349195571625572
0.8551216922715746
-0.46021293716339784
-0.892835381257413
-0.9706389902789174
-0.860102406242299
1.1071654043605539
1.3572962983283996
-1.1263107356579432
-0.06101741070395959
-1.2595869065352516
0.5156584498131656
0.5272095975035084
-0.877874172231296
-0.8790412046682823
1.5113144155319884
-0.11269873116308028
-0.26905077333776617
-0.3844784186861944
-0.03281613726382015
0.150816173510318
0.09191528949381172
-0.10442444349884061
0.1320973123104877
0.26501564710983205
0.5519954984982336
-0.5222194562733782
0.15605349196604046
-0.07221614257025448
-0.07719450565957381
-0.602759259455014
0.7656064332266475
0.8550893964345428
0.2061077856631106
1.3262103513238814
-0.2641019455030186
-1.5800701339897518
-0.38645246159991054
-0.569081947793258
1.1581885300182988
-0.6299949012053297
-0.27700084460310315
0.08839877743210506
-0.2673422773692947
-0.5799815980779035
-0.19754822428648294
0.7434297488834397
0.6492433533608466
0.19252945121053783
0.2279885187697904
-0.28433117001957986
0.07345529000086454
-0.2201295058840988
0.10407035857430792
0.3893869892985039
-0.8218844638790279
-0.36779417291594085
-0.4278166108457618
0.7099794592910793
-0.24675139249673717
0.7376495445292083
-0.1019337669651586
-0.5076267936612766
0.2033522110590516
-0.6756280689565056
1.9193460980288832
0.42632768372808216
0.5860369022715102
1.5588598856799956
1.785033728095916
1.4081263141177447
0.9645243585710579
0.20712749434179992
1.2830986395993038
0.5220708851660192
0.15655845242499933
-0.4334807433859823
0.9344565111287049
0.04701427166097255
0.03277119834125397
-0.9846972836577168
-0.666403731485333
-0.4452169165943126
0.556841604025814
-0.4358976531689726
-0.4506077544731556
0.4346244054545068
-0.10730884122481166
0.00800634782598475
0.9445213167374725
0.4766638297326017
-0.021003274431793506
-1.1813425303172038
-0.2912712509406595
0.4141055564868129
0.14247949952298278
-0.4474195897493475
0.9276175655463121
-0.00690186606362625
0.7513833675545827
1.067217126209055
-0.07301568646721446
0.03777924066368066
0.12108580221574805
-0.11559950391971668
-0.32294785816066796
0.21502040079815166
-1.1635468891937624
0.7984698507338468
0.03902331032833499
-0.7453003138991452
-1.264999318202846
-1.5059268097892966
-0.38417203717488024
0.9768018310046005
-0.1726422066659582
-0.9084428439853726
0.21569773758084182
3.1674823885336334
1.6353501439589415
-0.4816264240658534
0.09025268158551342
-0.24354815543443753
-0.398085348212556
-0.04326038049152814
-1.0819760677375645
-0.3006827776225989
1.5852027445875658
0.5624199102685683
0.07158832788378411
0.5380843036218419
-1.2307399697580585
-1.1485552742533849
0.6631094220249718
0.4615016117489272
1.8052542550406658
-0.9301264307228315
0.24903924423687085
0.6048328420144544
0.8830084991932763
-1.3283074046698888
1.60139864797109
1.45527693626351
0.28369985312555324
0.9320423523260917
0.2457165073465123
-1.248520785071733
-0.6052006556710139
0.4502220721589695
1.290509084049684
0.1850653851705143
-0.9063643973926854
-2.3205243084289084
0.23095188731884495
-0.32352620044875796
-0.14765162147563493
1.5677269626199621
1.3118469111690665
1.8665885275932943
-0.7509279660721118
1.0365754893596224
0.4706707923432242
-0.2120253061109969
-0.4380711668794281
1.1187615931454316
1.828717246314921
5.341995064701903
4.053123453472061
2.2547620091159617
3.521742868277183
0.7573411447123815
1.8503007624386307
-1.0219646726032607
1.1847868977841878
0.5636540097565919
0.14113790875290408
1.7324483059222788
-0.5753955123548545
-0.8933843057479252
0.19176617239299978
-0.24161124430755826
0.03143378382317952
-0.33328527857630086
0.17454776114708348
0.15991839915002462
-0.12751748715593242
-0.1320534155011538
-0.30672038271099106
-0.37670220048169517
-0.1978017592630626
-0.2022342051285521
-0.4758743788059836
-0.10465257716593718
0.09657061133617485
-0.3237636248326739
-0.2777078954767376
-0.735391761038124
0.22246031679208872
0.22043908871087795
0.0833517429293475
-0.026587691695681204
0.02791221667451807
0.5564318549837316
1.0846461158413678
0.11717491342816225
3.594937510398698
4.719867776057177
3.770184448891326
4.733065257200565
-0.030718727056140482
1.060058229334122
-0.36596068788280617
-1.5612854404166934
1.0542634634918127
-1.981635392101573
-1.3812223171839522
0.16704318944308327
0.44181900587442846
-0.4349128614310818
-0.6267422371415993
0.5972072061886633
0.5831478853814549
-0.8420418739703108
-1.2547129690989014
-0.8820273795117693
1.8424171580550006
-0.09106270617689965
0.5795864501106996
1.5073369978514022
1.3896270518411908
0.9849032962845152
1.9199977209955783
-0.2548703508435597
-0.7652548671882167
-0.20032739209307748
-1.9832848573266475
-0.39939426660963684
0.6081214041612301
-0.1836406336567236
0.6811102785399721
-1.2201844386171774
-0.6793005221441988
1.1198261209508482
-0.4610986181526102
1.0937420965214966
0.882189966447517
-1.477232523915662
0.05133215386568807
0.46699888622583435
0.49663535439938583
1.1965066920272305
-1.383750684867596
0.988449689115295
4.333663247577159
1.6716112517703439
0.753756154599632
-0.1542508163679212
-1.0276723144132989
1.0864501560739075
0.5101700603118049
1.729344137454349
4.202234597664235
5.73594271843216
3.6814247917419
-1.0567909967910107
1.2973805657432558
1.5788142792401494
0.8632312498052306
-1.0531772974762064
-1.2107303357937655
-0.3082098130943894
0.2608561603322145
0.1710586329586421
0.33950250346530503
0.352922032955977
-0.6179957398136824
-1.279250827393095
0.12170134518885134
2.0978751982858985
0.6008159013794309
0.24714351260428732
-1.9292154293453354
-1.038497706681078
0.1623470771583531
0.4517479801422044
0.3053101576339104
-0.4435464314925819
0.9023833606767362
-1.0272602341589954
0.37590056666097627
-0.5512958944176476
0.45144312202121906
0.9607004553080104
-0.9096321002526543
0.5209455372082857
1.1835923236485977
-0.6200080089662947
-0.8269058678471626
-0.48898828932354543
-1.4688793768453219
1.2933019019008898
-1.5086356047923721
-2.5021319484740796
0.6677774533002225
-0.8877743764142323
-0.7696028988114565
1.367040073905837
1.4233184729724797
0.6880110938959226
-0.26114175756724467
0.39148841096916326
0.08171954938018505
-0.6243561172752552
0.8556057372536432
0.5647095632254483
4.030129321910386
7.656133676751478
4.136853450738411
7.565823007190576
-0.30736062725772784
0.49684153174552514
-1.2438478618525601
-2.1920867005389213
1.1762612318348422
-0.9989632704354531
-0.5430546998731179
1.0446406601973226
-0.994843016399137
0.08825600327710792
0.7959208471711663
-1.0163227838193263
0.601323590120195
-0.056623186116613766
-0.6168627990302729
-1.6772278506857061
-2.157002123121228
0.059655979354377484
0.5798708219117462
0.17707679436169005
1.3737466045316278
1.3895430623931646
1.5334354992247827
0.7789547649043433
-0.17834851512710448
-0.7619429774145456
1.1396366900711155
0.6099524979218139
-0.162992368738849
0.6398101072996503
-0.4552577539479732
-0.32343299305971285
-0.9590369309564678
-1.0765249493019784
-1.1224280689974564
0.2871104363800684
1.0564660560311117
-1.610377377817013
2.06195767152478
-3.051872220038072
1.0583279265848238
1.3784350668980032
1.4513648253666438
0.4987124905953837
-0.2276867950251415
0.512144583560259
0.018683106725420173
-0.2722735611068123
2.1115287229497586
-0.21318789963661314
0.8427798434843345
2.974167942584654
5.8631499866943475
2.891088605908148
4.747821445363415
-0.3777978425982816
1.1999680722292196
-0.37195655502100994
1.7292809059756866
-1.6386734301935433
-0.6210442313440605
-1.2343708931054538
-1.3872781212566456
0.14596931626787146
1.4308891902632408
-0.28470810262003066
-0.5931703274201325
-2.1277640185305384
0.31513835085366626
-0.1863640330516288
0.2933747841851043
1.1158251084390232
-0.5432027963627447
-0.9761597421355996
0.12533328729594775
2.710925116817333
0.5146916076620371
-2.504900765941536
-0.9168493373739964
-0.696421958082304
1.0111239135122545
-2.0235653131188265
0.3342566625699557
-0.0774001596442029
1.807115748227333
-0.7377277877896221
0.6608961655734725
1.9033412596702532
1.0051388497763845
0.8923763588838043
-0.19856673501876365
-0.43294724035530274
0.16541527369879527
0.7559070884822034
1.3539473351299691
-1.0261926635090552
1.0654463090288648
1.611231251378588
-2.0587781410118304
0.12621236775846045
0.32497303964159674
0.6497866131115131
-0.9408412200482698
-1.1987770388769392
0.5060920883479096
0.668552547158072
1.5141091152559445
4.384433063368191
2.205825440078375
3.3706826540378922
0.014105966397293834
-0.42520534538134375
-0.4385880534274762
-1.141357541272
-0.4179638069984837
-1.1816607808304391
-1.691767501741623
0.2968421132308414
0.4825986686539126
-1.7166925562206434
-1.8972702036955398
-0.4098718470971252
-2.975149828786531
0.1982940081702986
-1.2888474612508127
-0.5213657202163898
0.149999637475016
0.12532858911904976
0.8898795580076482
-0.08027686891474461
-0.019443202263635162
-0.755558106745164
0.7433307256183249
1.161216787498501
-2.0493316695421804
-1.6608593725122196
-0.5531677238415089
-1.9791571417399263
0.4017930904650976
1.8057370078704893
1.8832536760585723
0.3203214636898172
0.9673486329218262
-0.3657518935884888
1.9961577391559526
-0.586571198132541
0.40062865591569014
0.6678662041642341
0.07895189967373345
-0.573938828321284
-1.0872489488624268
1.5715586386598241
0.08326135536120477
-0.027288311790626144
0.30141535103142636
0.5808778273289158
-0.02888898637726528
0.7586056241194349
-0.15632498951226087
1.045169822775454
-0.9884725847856385
3.0181449963126066
6.662385382432405
4.457362448360994
6.3036496776565265
-0.1636633225750589
-1.0166552279731158
1.0652363975795145
-0.1348763386230547
-2.0768616342402253
0.11713842405880794
1.3597271986907506
-0.11917558069847016
-1.0194285389757307
-0.05961075207793176
-0.9432069474601679
-0.19757214541032453
1.397295827509452
0.5873617748290343
0.2980437520988488
-2.0939210243818684
0.22118981668849885
0.8544506965731372
-1.6227629159925832
-0.7203337075325871
-1.4318535390992673
0.6022303318648066
0.15439721769771922
-0.37310495474736305
0.1290025816498892
1.6496503140539542
0.384832796757967
1.372091666269411
-0.3188340403796001
-1.2138768592159217
-1.7761089837605428
0.3800609146461629
1.0830109711371754
-1.9226382532950683
2.387044630471203
1.2633929400419042
0.9652194154295272
-0.8538341258392077
0.563956227023733
-1.4188609687632934
0.03199251932650188
0.5111526173861035
2.1318834307972403
-1.2632176099147192
0.3651184058549487
-0.410936031181126
-0.5050053186925945
1.0218727946392288
-0.5797571880925869
-1.9732177592147058
0.2205542518235089
1.8434883207611286
6.14320435601706
5.9496214211301774
5.835977716057683
-0.015085975305233916
-1.733457894025081
0.4538755820746029
0.06343857209461193
1.7328772756347282
0.428666236704614
-1.0319113473729176
1.6453234922535738
0.30031384930348914
0.06398353539300333
-0.4386231069811156
-1.4203452647251975
-0.2977444492728627
-0.2145637403257689
0.011860072554284368
0.10329201130862037
0.4991688597651075
-0.47547468575220775
0.8057236111064021
0.7896677096193043
1.278309743319309
1.6886657549159771
1.0442945588270707
0.6900099587469554
-0.6459866088887161
0.15661549362451155
-0.37063344455102226
0.17555039315762178
0.13160810026897324
0.9850577286441228
0.22493169201035512
0.005195927145788759
0.4283118357426047
-0.13954306828724578
-1.794296769031605
-0.6642679311890827
-0.08716128542229692
-0.7918881781184917
-0.5172956648627398
1.1254119987373474
-0.4565077758189101
-1.034192948524427
1.6324906751760366
0.5820562780898837
-0.38421606807125064
-0.4896903403339897
-0.34275324652029626
-0.4926597583099862
-0.6145958213974698
0.3816121325231703
0.7769313539486344
0.29444679736392626
0.22212932141209946
-0.1252639632143382
0.1297521939683176
-0.05578634281227923
-0.049950832907367376
0.7360296541493652
0.443553668354012
0.12063505951281861
-0.790771008657849
0.2092290748280654
-0.18481896838343903
-0.7624525680905792
-1.001040482215432
0.08670044497297369
0.09508872291218548
-0.6303575026857964
0.2561012230351173
0.7334765825482596
0.14460336009600233
-0.14708016894885131
0.19272682990303838
0.5821029793890157
0.11181265881885305
0.33017968334186343
-0.7327214999040497
0.6285169253927092
0.3527580083269276
-0.5793125544356064
0.6247742053437688
-0.07076098280312045
-1.5999815755222584
0.19159487535682512
0.12127742129653268
-0.21867303593236814
-0.1422125231168457
-0.24674237506980368
-0.1776310235425983
0.5910247935393798
0.23267321166786825
-0.9187727103935888
-0.7114881013688329
-0.5389878896715711
-0.2360627282633529
-0.5476820966368248
-0.10038360680990188
1.0732270369949881
0.16072813009475667
-0.38515304323230565
-0.3213261040088328
-0.2720086929993677
-0.6925611524578761
-0.1135889365933659
-1.7398086720556192
0.1842115913793819
0.4654170618125013
0.5115050413107994
0.3762509583652251
-0.9320503172226067
-0.0753655685932492
0.6779349746588393
0.33589372587285726
0.0639644108682638
-0.3970362435184242
0.18674932148935977
0.7926863394607337
0.49975410665609965
1.1750549478477337
1.0682776211688267
1.4641837986312218
-1.036232143407823
0.2362181248062909
-0.5462364682314784
0.11549710578732336
1.4597032369954657
-0.1463135993752248
-0.14885840898670205
0.3564008875541961
0.14476610998808903
-1.0232418639965473
-0.07730880324046549
-0.12774130520219126
-0.34817038555352425
-0.3125365277925493
-0.12026116274596672
0.6663636594339037
-0.12361354764678008
0.06066797206206209
-0.15454247074950403
0.20195990483547654
0.47653178729649387
-0.39650644097325954
-0.19217368307963317
0.275650577460287
-0.3962942021452865
1.1115662883436823
0.1703989932226448
-1.3268935124367989
0.5541170251711488
-0.5464998041528077
0.026189408123716618
0.21638975501654623
-1.9090132832475688
-0.0819126814156409
-1.4552154101765018
-0.5388580775384719
0.9945015749080413
1.2738199092549378
-1.167165136884377
0.6151826666101287
0.46578497804224034
1.3382293268397494
-0.31697243237513795
-0.17624285073095783
0.0977079358490211
0.30787050091601864
0.6608983603769663
0.5743294410190057
1.626654262984054
-1.579404405005013
-0.7711016516640894
1.3444127395808603
0.45625055291717
-1.400106668535943
1.400085903116597
0.6692405648733503
-0.22316887400810975
-0.1854125108109404
0.754946843823207
-1.7892255245677375
-0.08141403610221698
1.2416390945711075
-2.863986880984572
-0.35267953347177566
0.33802435119601104
1.1363866874108188
-1.0247239021610153
0.25257294399671276
0.037566282865235556
-0.8434776235767327
-0.653432894932578
-0.12208930997976214
1.6188423330488975
0.6370384602164645
-0.21109941345138983
-1.0033833404232726
-0.47537226584859993
-0.9621861726293621
0.8300414725447315
-0.30532099505105703
-0.15386616649685753
-0.16480306659201158
1.150412523937222
-1.1465590035901556
-0.8292816189672253
0.42085070109959277
-1.40206598314218
-1.6094732070242737
0.7056667358614999
-2.0245814681534586
0.31537239809212614
-1.4245515631673706
0.8709598051812917
3.5423197386176524
2.667362858332787
3.326265670355207
1.337217703005388
1.106228551930591
-0.9879998915546686
-1.17028952713817
0.01982042296081099
0.657510253850219
-0.12202318842493043
1.6403503232034529
-1.242732533093365
-1.2515351586989218
-1.7821253011180356
-0.29986059557991107
-2.1003239661534363
-2.5105737327049322
-0.08454899290937705
-3.183575155362312
-1.5063269561765704
-0.7308285302447044
-0.0645748650715472
-0.6217471385770534
0.5829634537557449
-1.0821789176729424
-0.8802721931479309
0.5264282469562455
0.3512536494193411
2.31590031157793
0.47032206141161004
0.23129806988542434
-0.2815096209422109
-0.4286825710023636
-0.3640948432920412
0.4047996992910802
2.4160220955574316
-1.1636711229561285
0.0503106716707398
0.843344409837707
0.9336623251906504
-0.4490505259935058
-1.2373322226694465
0.9666151049163146
-0.24984481377887952
0.5301394853077774
0.0491692082086906
1.413492780886827
1.77434512048642
0.35642047662657833
-0.2753838129922779
