2.461852717678852
4.785088054891967
4.731843305347163
2.24410300042484
4.360736194116628
-0.8521228887631663
0.05280383805734451
2.429374221326107
1.9801369478809974
3.098908733928782
-0.5537635340325423
0.9264427999050637
-0.6052485003477193
-1.2723115020924676
0.7279273778502329
-1.1694648006451094
-1.125918281376582
0.9894069180316919
1.2424581734408455
-1.0563093269311998
0.3345157676810868
-0.20346805589447542
-0.6113448641112509
0.7732816637251378
0.7448981259606543
1.2232893023445315
-1.7335802429318485
-0.08832759069231944
1.4041231510127843
-0.827242911931263
-1.4647010233477182
1.3189029544707656
-0.3958358682145326
-1.381600390344524
-0.11807009812769947
-0.6860868868710144
-1.4582208821821394
1.1961020457442837
-1.550701920305665
-0.9349559166972332
-1.377315280052516
-1.369709138488252
0.73583649095942
0.2250671597882269
-1.315019771120307
1.4788886210026044
0.6520543586684167
0.6160794964637726
0.4016291758190389
0.22667004673970487
1.660685097261921
-0.601002663351744
1.7335125204004085
1.6414076524999657
-1.9128592090058008
0.5411373909722006
0.23097774993950596
-1.561068551308116
0.6513771189615535
-0.3596135235726281
0.03482629722707187
1.7460508060458373
0.36492283547983945
-0.36318429966117255
2.445329555611059
-0.7692604392728877
0.8669890371893401
0.03588580452998558
0.5775102845890797
0.0835792395840799
-0.9118933442458067
0.2766346406257979
0.23748002856236883
4.320626765931205
2.2204466793804163
2.5108282997553024
2.94565769206747
-0.0769966160183754
0.762597323357441
-0.014575986253403006
-0.1468335567985306
0.8137146064270713
-1.6042606230464593
-0.22421192918536303
-0.4257838773898339
0.6419028533760804
-1.0379559680764412
0.2123871900160681
-2.299322610266204
-0.7590181582710208
-0.705414949001301
0.41329679256162866
3.587502257099708
5.042429606400935
-1.3627980566000493
-1.795900710743347
2.422750532587284
-1.1629224882290055
-1.1137385638289155
0.8577388985070744
-0.647568434723989
1.4086571545701818
0.7158500010873408
0.9509258067110311
-0.3986983251151045
-4.328283928371185
0.3223644666329749
-3.8903013196628518
1.9744872152372037
-0.1761309612940123
0.4659399250466426
-1.878363854702553
1.5726902002307779
-0.23825370486782618
2.888187486619367
0.8519016538379613
-2.2483406560692467
0.5469148127354195
0.7875256675642327
-0.599227364247457
-3.2907838962557756
0.1261478819266315
-3.0606427412544597
-1.4461272882299736
1.6072676973570625
0.24213261676609807
-3.564084710310376
-1.4586135258700703
0.8431580996308892
-0.4248918014237664
-0.3721140017823278
-0.9868063809100763
0.9891844531700612
0.8701957557353683
-4.697905113402527
-1.4586727848063645
-0.5672105564554772
1.1733113230532788
1.041150640599654
-1.9467703150414366
2.3527847471821524
0.0058051620067114396
-2.496944979525024
-1.1913323889982737
-2.1914619259208368
5.126856161459093
4.390575476583648
3.200004199382741
2.983582344286913
-1.4862283698098218
3.2029244360494715
-0.7527882847214085
2.122942015656563
5.700120895938793
-2.0157344253516314
-1.301061056577365
-0.10143283373407486
0.5320207738585286
0.4852959127480163
-1.8954698716307143
-3.269530946551659
-4.944360216083368
0.6806724311338271
-1.9400598047953046
-0.746068413554906
1.2706194860293034
-0.6032751417577543
4.7158815471984985
0.9264585203841659
1.2838980133546392
-0.09648680301417614
0.6926889738532792
1.4953887647871014
0.5238722543132737
3.459384563508843
-0.07171053134705507
-4.3075890043185066
1.4559085672386405
-0.035878759092510815
-0.16616119975311447
-0.6210143606894869
0.2114549422424436
-0.8952415804129636
-3.228700302106446
-2.559943059198252
2.313008775556552
-0.9534618115216393
1.8363478173420813
3.7858171390602187
0.9395200491966411
-2.473432250915661
1.9811713185434248
0.2885038301877546
1.7578044136335462
0.3563304755829889
1.5509885765853877
1.0368379815220328
0.3582703337643276
1.0552718126387404
-3.6031128377681467
1.9649722280456725
-0.669829150585545
4.021786619508425
-0.9023795016438988
0.6798084483790007
-2.8352094057093664
-0.6362006475887145
-1.663752743782117
-2.6917488350934624
-2.379514176617997
-0.2662134363385592
0.3618651389463082
1.9482288276018853
-0.7091184137791343
-0.8728630134634098
-3.0101699927703427
4.8097628776031875
5.267524563488325
5.5651601365944146
3.1703584050624696
8.393433239592063
-1.2675650477206233
2.3089038963163775
-0.4551125670084838
1.290221548069861
1.2706949366998144
-1.10369433896545
-1.98484798105527
-1.1644727169124214
0.827767237232511
3.723782716418424
-1.7926213970083
1.0613013437084153
-0.8648304987584717
2.310579381384434
-2.3036057739237057
-1.1567691318569493
-1.9702078409508121
-0.05525662242596219
-1.6244069535705135
1.7358998292344296
-1.891988792777618
-0.37558506037026307
1.7998131505715649
1.1511272490577893
-2.9284835094858903
1.1130069115977643
-2.324054245656325
0.6892048572034724
-1.5612983197536805
3.545436645833745
0.49855814131222675
0.005566566543583784
-1.4583679191459349
1.2599826840549253
-2.11003441781704
0.8796414848719252
-2.0750274274106926
1.498824789235399
-2.4895981465393793
1.9821584679758495
-2.3228899075461418
0.3503141796177299
-0.5466642944388458
-0.118966120922397
2.5383603844300735
-0.9091771101743689
-0.42250164446567373
4.116831484297368
2.439353388018168
-0.42704476746438536
-2.675050125833967
-3.3540007254484063
2.6620141484520947
-1.6592284633309748
3.9334258758338816
-0.8262220128090798
2.2013729917670526
0.32393455130005544
1.0704237642858767
-1.5308335678923828
1.7690710271116628
0.9125929185993551
-0.07751205050092025
-1.2981982725206034
3.300157566431834
2.5228702993902723
2.0189045320132037
2.5230950893471293
3.9265610853427013
4.485705850075004
1.9731034679597528
3.3571169790223876
1.2823397346021017
-2.1017580332182737
-0.3173281147289846
0.08591948677058249
1.1056842022536686
0.436939397619833
0.25124581646623334
-1.5315236015617049
0.717525737866864
-3.253088365345082
-0.33307834781147905
0.569177419344287
-1.2087874275418562
-2.3183974793550024
-0.16180264401744324
0.28193351395036315
0.7111135707926011
-2.4035300677731524
-0.4783961193967023
-1.2047950397808496
-1.6828654303199841
7.451318942939865
-1.6802488444865336
-3.7311792771282692
4.1710857522149825
-0.6457449371748872
1.4938871964463387
1.19415019200649
-0.49095756711586847
1.2539417052787554
0.38786670301979487
-0.22800716200557253
3.811192058254925
-1.0535350200550924
0.644842386226657
-0.44207725112745305
4.910116421109413
-1.4022216887594716
-2.227866102838853
3.6075969655556284
0.7424320451384638
1.2941715357210215
-0.4644567607225848
1.4548952233483723
2.359927340568266
-1.2801773349536336
-3.118665213955361
-1.8775427150530004
2.9160011129642074
-0.14372522308850766
-4.3286978934456934
3.052660766169981
1.924681305708953
-1.0811352091033448
1.1262540959794283
0.4025282969458632
-0.6719907377245004
1.3123727439283734
-2.252490710887073
0.1889397367352128
0.5330918367500649
-0.4961620314131633
0.7826180584914941
-0.7195488588227401
-0.24854868041306033
-1.2485061527557928
-0.6808092076467852
0.5958883611860603
5.411809889973227
3.0337787566170173
4.7036620632660755
3.7612718259354625
-0.5673776453447732
3.8357685361354377
1.6536599788274673
1.6958159938090611
0.7125561437257586
-1.2651020329603182
-1.1189097471183596
-0.07056484905413818
-2.345949265355813
-1.3186217054939602
-1.4947705638659734
-0.5989505503689544
-0.4243341130495209
0.7151514818849836
-0.24614153076460588
0.5969470766554567
1.3881705487277702
-0.8197955603970876
-1.5398764161168927
-2.649308934055429
-1.4608737611406726
1.1868471142806096
-0.6038986413156062
-1.601781148509299
0.393845668314993
-4.202382357191445
-0.477599313811391
-2.4405149963855006
0.6768172484779695
1.0950979099255644
2.1331501899782004
3.1767364873437303
-1.091832726487275
0.436798686513637
2.919676116067305
-3.827530946610119
2.9087913038483038
3.3024413090549425
-1.3331423865560135
-1.36627811360329
-0.020384516332065783
0.6237737192794441
-0.3110409181289531
-2.271972821722909
2.971798268360372
-0.2008702781029214
1.6792474211816826
-1.6519627071881144
-1.342077374507167
-0.37702234982271116
1.3008998122567397
-1.192679622381521
-0.16607921310413112
-2.5885080678873695
0.39513699505910965
2.3776270249994385
0.1112419812766364
-5.213488293278668
2.5576768490153152
-0.12288653798075982
-4.737446690206493
-2.5901096139581825
-1.5451849661047439
-0.3065785374978768
0.7239652388727837
-2.2464838253914783
1.3968769741504217
3.00868456319441
7.16938649301291
2.698581636520303
7.376375499553072
4.769468186336037
3.1168428133445256
3.3652639662468644
3.270970165252763
1.0935881684546982
1.11076021158066
-1.7660245968245523
3.491160290213455
1.4931209134626617
-1.6497291201955597
-1.291726069457391
-3.121825956354998
1.4742923795383112
1.2713504471487393
-3.1642105001655247
0.7672446228481741
1.922834317715759
-2.5502649861830866
-0.711549759684292
-0.52495220606138
0.4614727067684938
-1.1229416490955721
-0.8205813954052474
0.07179633985718907
3.0938824196582813
0.2804834758316037
-0.8486889547463152
2.449055835488922
-0.5778872600463991
0.45642148967374324
-0.4129123747793892
2.2390915758340237
1.0574247548837725
2.447343043771334
2.240906423535244
3.539746685949511
1.0254639097936893
2.2313892996202673
0.2044980516146202
-0.5291957761221567
-2.3793852346613695
-1.1560611672416792
0.41201370270149384
-5.023776749008485
3.941375220730005
-2.4688415208340415
-0.3457577537577043
1.7518698456590533
0.5927989130671383
0.9275329892829761
-0.15961974700030646
-1.23753351111878
-1.0197919262263395
1.1421368199782331
0.6544765222075519
-0.7371880286525339
-0.047308523335543445
0.26692280292550374
-0.19423438324364395
0.8202444710712804
-0.48362857657887726
0.6398854579593034
-0.7023046877794902
0.48985951161881075
-0.03191860000159569
-1.685420811780099
2.7315820826695303
-2.0210029105273297
2.6564156927961813
3.910467136678529
5.239401370976574
6.045919374308397
2.6342389891558864
-0.473054805130252
2.250944731222635
0.4667185889608862
0.8778547465883236
1.726054491535482
1.180209293860204
0.7924855262043458
-0.46875138501814295
-1.3740459436545107
-0.5288210247815667
0.9962773967669566
-1.1171998335341686
-1.148761423025576
-1.184465711721779
-0.10457591013564072
-0.6189666459002081
0.4260618838557866
-2.953499941970767
-0.25714848971013404
0.49514221850494167
0.15408859081362514
0.5624779350434359
0.7115104547959384
1.0522779268722124
-0.8094463321607043
-1.1432495111107528
1.592213942065964
-2.3104547446845265
-1.668135868842668
-0.985616458768485
-0.20107845444484052
0.05868249605724796
-1.565053260528601
0.9928194893813588
-1.7708283668313554
-1.1299474721208622
-2.411830956012342
0.6244558470989143
-0.3317546392594788
-1.007980286004265
0.6501786653846955
0.6700380677710309
1.094214736756315
-0.42050697501998163
0.6496545137631058
0.5623092493142916
-1.853520606039419
0.4394697542856367
-1.4455565842041012
0.30026409924687575
0.7511749462717523
-1.2806278117245187
-1.689613563079682
-1.0864284277077056
0.19185058541624134
0.5681590899942174
0.04226919058067671
-0.6522318701001895
-1.688204324713523
2.0507962767505465
2.812801168904192
0.09358574376484957
-0.26905796531582776
0.2754200709880996
0.6653852840422199
0.742053145339091
1.306215705060305
1.5363505093057923
6.167927353637073
5.166276569634274
4.58965762191335
5.35834360195556
4.313029197444499
0.8773229489692391
1.070766333980062
1.6472607592325916
0.42883448190269524
1.101257905673771
-1.9302595858162306
-0.8565930986578854
0.15835919894945177
0.9173334560565172
-1.3846418209488396
-2.063643987871675
-0.4402152260851602
-1.219652750928144
-1.9445796278587155
0.02039667139000287
3.8835547952787968
4.473530810651346
5.081554908513324
2.7028389996758437
0.26546683559543266
-0.47194714271026517
-0.2883928106599869
-0.9871547571719721
-1.1969701935595412
-1.106624200761773
-1.312193543121941
-0.40111639130632587
0.30131493451276536
-0.1290507395559184
0.9953650641825653
0.6482743308045812
2.8695077535292244
-0.922478508577069
0.24784880897190062
0.8090453520274665
0.4609667174714148
-0.7118005019663878
-0.566488235993018
0.3667851067261922
-1.9552406969472331
-1.6117983409310064
0.17266091075087764
-0.3780705101722809
-0.4325657872007543
-0.8649107841599668
-1.2825504144534914
-0.6390797882344551
1.5803320062497228
-0.7945744430875753
1.2694705635978516
-1.1273948090725006
-1.8302050496622726
0.30881203133461554
-1.0468018470968625
-0.2579787105537097
-0.23617011837981036
-1.5793558425006184
0.8721240172291773
-0.7720610031046529
-0.02549694724724247
-0.3299954488729032
0.9572770080478322
-0.49375638381424264
0.044690004794039534
-1.2831995951204012
1.6174768849409502
0.45699557394672563
1.6848777654514893
5.354320378277124
2.339537198429701
3.423708896961613
-1.6246306793925922
0.37869879659819283
0.19096527698434423
1.2147557462564045
0.879435683376837
-0.9609377477730761
0.7159288917241486
-0.6418671480273553
-0.0053169211636822505
-0.5525987966638839
-1.8578190406738635
-2.538027828316652
0.22246076626220146
0.3775119876849553
-1.2082103531733404
-0.9709480219570916
1.3199048827586688
0.19742167311291026
-0.7058339702179088
-1.744026482035009
0.7694392980776595
-0.6870929418837488
1.7238041626325318
1.0380961960413728
-1.3727890751734615
-0.012383592632457252
1.0651282962240745
-0.2578233597533913
-1.7680252009565571
0.7927404220034667
-0.835149525192441
-0.8091482545421844
-0.07441148988890446
0.20622019776962644
-1.1708639013360629
-1.742269518682278
1.571862018253598
-0.8875632356726444
-0.34809588522809987
0.5287885978383877
0.06225112767622015
-0.7784300944963831
-0.5562027483914187
0.5826141897547472
-0.7401817018311775
-0.9637592786105406
-0.8679612878345163
1.8368242916933222
3.712034421770545
4.479409668124231
5.305863458013939
5.760497631758849
0.6499098117827102
2.72032788172384
-0.6276908779237748
-0.23490047575376627
-0.2855106692132066
-0.1942460758738204
-1.8820311168832071
0.5094164124074217
-1.5765072930524566
0.636916877816521
2.264738435504303
-1.0119595069248195
-0.6356407393516765
-0.1952335308415442
-0.817512430405493
0.008883393543216322
-2.101608694028135
0.7386979019850298
0.9717480045003094
-0.4034985564207553
0.13944108499138697
-0.7116702215646247
1.5839432679224839
-2.108065842070245
-0.32933931403608036
0.8435036348413675
0.697684220760512
-0.6287761863544743
-1.4367655960559618
-1.073907631919572
0.5394778995984997
2.314263162739026
0.43751758522809026
1.7543835024479395
-0.17368058336981984
0.28035499716202084
-0.3821353756058272
0.5967796876759335
0.5469820134141312
-0.7351763993469309
0.24477236930018043
-1.3021676816838363
-0.43833475015949125
0.7979632427014546
-1.3831180545838415
-0.29281269038629787
0.2672698726936078
-0.7753205967908524
3.466558072401149
3.452014062817714
6.926292264712432
7.9653944590555215
-1.686802789396511
-0.907790352548379
-0.9536145939979978
-0.334247295364399
-1.704448674666671
-1.041029954213488
0.5882908867678049
-1.7469697651676392
-1.2825060096113097
-0.06843687769851658
-1.9940045137396487
0.2005006920238614
0.6493638269011395
0.15900677968869312
0.6802368944224763
-1.3689710330716458
-0.2633384543621127
0.590035960018204
0.18801661512275447
-0.4653901698691068
-1.9883527085358332
0.5512804263859437
-0.054741777790226376
-2.4190139988168142
1.213694392848439
-2.0558488415339617
0.8653389411686633
0.9089819790773359
0.5262061541564428
-1.521439926990528
0.08918749975792295
0.9461689014330085
-0.44842109021457355
1.4880037310110061
2.016875179345573
-0.21402760273466023
0.7952358340903842
-0.9209090013099636
-0.6244373830134704
-0.6747534731230442
1.7497649255923151
0.8711493385757608
0.741352464114905
1.4721555656823253
-0.0005925105297952538
-0.8172840508057198
-0.9684785109820584
0.8662681720942861
2.78682427501998
5.0164677323325515
3.430956182085818
4.023876163531923
-1.5526216103663657
1.067291642540828
0.9977702742289796
0.45928159122835926
-0.4149154456972181
-0.6565876736464586
0.2230396481960208
-0.5164229425110162
0.1646000464884224
-0.24937597399580394
-0.79636351750478
-2.913626305489232
0.8511465374687117
-0.47517603519150736
-0.9077235351334059
-1.0548602261077715
0.7130050506520931
0.8505869730754921
-0.4506180924381825
-0.2261556586281412
0.6199750959209384
0.11178176897553115
0.8019196765097935
1.3524426932266285
0.7183251931845699
2.0012437977313957
1.2555857373161614
-0.745003376009087
-0.08847029081970009
-0.02499026229630133
0.2661896017053257
-0.7619209247403457
-1.684956704787297
0.6845918623103755
0.9505335985791283
0.4594879694757391
1.1998344697427925
-1.309794178922283
0.36038935067426964
0.2002712263357946
0.7231695615608696
0.6793192704687403
-0.23040433405840294
0.5914482802409624
2.0291327413026123
-1.6050361929374737
0.8895161843306488
-0.6555868587102653
2.613091429595744
3.8693701625049637
7.600590902605808
4.271593523834502
-1.5784194464937946
1.3758625529003694
-0.12250912919195195
0.7832460057015236
-0.8938981631249734
-1.3534213415925604
-0.00487919648423038
0.577588438189193
1.3009486595813728
0.6981948805736289
-0.4327621885540309
-0.48167086417686505
1.00014840106589
1.38564748711857
-0.9663714167623477
-1.969488706748108
2.1119889555954705
-1.9907867610953769
-1.2948213590684587
-0.6003802220413259
-1.3477514273036508
-2.0430455566120367
-0.28848216389756876
0.14464284201639338
0.06828525874520719
1.2015522237487628
-0.879815215791936
1.3518541552217764
-2.1561840552792115
-1.9068935898612702
-1.2352007778754177
-0.46503936667658236
-0.5027701594468725
-0.7326969912403856
1.0036687278648904
-0.21101181862221807
-0.581963951688296
-0.9508692767421069
0.9455698344167911
0.3688366404006679
-0.5058548500757086
-1.884632659834169
-0.548196761399158
0.9424029116181883
0.7476113486374737
1.3897316484672722
-3.1254932278861194
-1.1081364970269727
-0.21858295244551906
0.2623902838467271
0.3134438801041167
-1.4234820436208588
-1.8972318633472551
-0.6191123765244388
0.8664383807937002
1.2541431222087094
-0.03405519445072697
0.5219033811854963
0.9060216190479977
-1.830912378218217
-0.6740268231898241
0.2251019021719123
0.03895551733972202
0.4976800221297041
-0.2978794227737758
-1.4397532894210805
0.04974587316924384
-1.186939040064861
0.06412804222799294
-0.024017880949124853
-1.8316790553528708
1.3765788069516287
1.5623894167856187
-0.1622914950531857
0.4214255206870387
1.8907023567785308
5.511528230285507
5.5350625865052505
3.743061176286651
5.585967272883381
0.7784498860833913
1.8190559778036692
0.7839618972457641
0.5438026163166747
3.1342189221842016
1.542153630375882
-1.2748338172245597
0.5988408816055104
0.07762660518658385
-0.37550190241168585
-0.8954958657784506
-0.3816359641643776
-1.7397903575589875
-1.6763748940466479
-0.16064710499074375
0.12421807313305805
1.0322592959619237
-2.708694645887467
2.0381594886777776
-3.0233812723950457
0.8585973663383746
0.6897764204687856
-1.2799291903211283
-0.8106682561820797
-1.3788048199705898
1.233630179260062
-1.3421774941371551
-0.04755937611172223
0.17518185531280175
-1.8544896767208687
-1.3042802042426997
-1.661179627508289
-2.021806046486976
0.5917209994313355
1.1242308391762386
1.2997717644467173
0.6046430971166346
-0.6348793480680534
-1.47953751494914
0.4118915769583189
0.7393918327660435
-0.9065361285743561
-0.5309325429018656
1.3016445492936655
1.3972434006765888
1.2446559454381358
-0.2563526174260765
-1.1336685361011676
0.8672911493687171
-0.44373667254417326
0.5121262054499491
-0.5798837509559066
1.014288791598237
-1.3907313938128394
2.568930631073571
-2.92382527461476
-0.11288158841366905
-0.07773457502087555
-1.183947048199852
-0.6601658942647346
1.1344193596306567
0.4565321082154974
-0.9296635552878725
0.7676936793553268
0.6316188689301482
-0.2963943165137949
-0.6056597772013094
0.8467495236979876
3.3317294011032996
3.671798748240026
4.173736552057857
4.9493721589003545
1.2988988034649882
1.146496118331835
1.2855834300284206
1.6951124750195259
-1.2191720988992834
0.48557725156913356
-1.522298385856681
-2.808739484447352
-1.4342166667359824
-0.04604439642951286
-2.1324691876460657
-0.13812403730004014
1.3145912690604742
-0.6472351747195322
1.317384739771752
-0.3206673551238643
-1.503420810270942
0.285394991701072
0.18164634113579414
0.9058485426354106
-0.021973629865198963
1.5437156467581947
-0.11009660123718856
2.1445314315319086
1.3380618219499918
1.7227205091777171
-0.7307883118478572
1.2620790895246017
-0.6317393025793664
-0.1504478517968723
-0.3933723883499134
0.8946363055412705
-0.28814096838616143
-0.807807804696767
-0.26389445178768156
1.173237867984157
1.0168490670533172
0.4877941661426739
-1.1494886764056518
0.9682397582279665
-0.3301908811525692
-0.13714658428161403
-0.7325142258691995
-1.7808449301741134
-1.5224142681198638
-0.04232248453193732
-0.9975275465541505
0.19941092174254926
2.995168111859023
0.4795595125878869
-0.9553472741677255
-2.2021384294849486
1.9178340787434651
1.4205690250855179
-1.4813476454844428
-0.8036587189367106
-1.2476538699888167
0.1581096102445238
2.8261037794377715
-0.8927626299676458
0.971028905491736
0.3058326490805189
-0.20814794204696868
-0.8942144445303744
-0.3251129408407831
0.5206390673373666
0.36142356149482735
1.9630253533279116
4.024081180098675
2.5623018897051155
4.347553160154238
1.9926776941053261
0.6068658226939447
-0.6976190080025715
1.6601922449952577
-0.9482758020632853
3.0883995935271886
-1.1730266535106555
0.4414596359662474
0.3504002394234039
-2.2640645530092396
-1.5792336183539504
-2.2824220017071855
-0.29809983193541173
-2.692900839247252
-2.7707907956389715
1.9798730169714767
-0.37878400129272893
0.2603890856499346
-0.42216560452195223
-1.145113469930692
-0.7170882266330383
-0.2533300901992073
-1.6269122786105816
-1.0967337284332699
-1.1045154413183962
-0.1442107843874616
1.570449638047546
0.583406374078206
-0.3672635865863711
-1.1332857504658114
0.3803378530254062
0.3548299729732865
1.5536556690363095
0.4949068203330341
-1.1236976914212446
-0.32807261249815384
0.39316160138978057
-0.5125122985344145
-1.9677389482063101
-1.837907388648873
-1.70392946349592
1.1488735459305783
-1.0483688111940779
-1.1011919113553916
-0.5092291053439657
-0.9289887586069336
2.560000151448831
0.25777536321864175
0.14519191526407738
-0.19892007804865217
0.41968798469089275
2.3510355819007414
0.8067358240467282
1.4684018719971077
-1.4589321938563091
-0.055671229391607846
0.6039029332097902
0.5825136130952171
-1.2909255620785478
0.5425553274851245
1.3061352159840267
-0.29380092686110115
-0.8982366748571268
1.540277185927692
0.27666859296439295
-1.3402119928796585
-1.6571355095424587
-1.092424035838405
1.8914774352074484
2.467156356754618
3.5884894672113674
5.89577177207702
3.9078803561549047
1.453167223568237
1.164361922369133
2.8707118695274
0.16552867729566445
0.9942163625451148
-1.7115939673727447
-0.917247320992144
-2.194593751097762
-2.548947705581802
-2.460849376730876
-1.8684389512822
-0.8505754054791179
1.3847322066766952
0.46746313173864495
-0.1303883040000392
-0.526234018475073
-1.148126448203465
-1.2449751228572283
-0.40993364970805785
2.389154553334196
0.5045231188757293
0.4036819030563795
2.970953618626635
-0.3347700898621355
0.16772665494295522
2.3230568120063433
1.3029950991432238
2.0528608914323296
-1.8634760726258466
0.04167158818072969
-0.866374030612822
-2.8813062943322008
-0.002628777958393308
0.330768483115173
-1.03367700637508
-2.621601498810042
-1.8307621348791245
-1.001709031813361
0.21658565914403835
-2.278360790364222
1.4844508025257213
-0.4422942983122797
-1.5905027336875117
1.2102474759155861
-1.456366611643053
2.2407481648231564
0.42053360588989774
-0.5776704355638944
0.7056288163203496
0.7364532302272029
-0.459768516219433
-1.04322905736489
-0.16910996003142392
0.8403325508378813
0.034880921963310496
-0.024628607901662714
-0.32819938056047826
-0.6599963495592531
-0.5369332111744425
0.3395999390528949
0.429713669552517
0.05293497803944633
-1.0081000396474091
0.9004235496041669
0.35769332887248434
-0.6516997275173235
-0.8027285063442815
0.6643126789833576
3.6840686444528115
3.800844109456183
4.7901260208879215
2.4772269970290646
1.7416721948965639
0.1896044087449693
0.8315123573251897
0.5974253923520156
1.6691528665075286
-3.1007033838815676
-2.385167172567676
0.5961267161502031
-0.6474128983083557
-1.11264221643282
0.25124938595571406
-3.506854583479073
-2.426605522897539
-1.463290824157624
0.28715974657439736
0.28651495108752767
0.415561944930556
0.020724993417326226
0.9188115055147026
-2.9762933192331658
0.036292757028576414
1.8710050711445425
0.23560443725760669
-0.6919319235373056
-0.05470564349707163
-0.2183698102927685
0.3619701889435275
-0.24445324513549305
1.7458800841848139
1.1557953334307831
0.09507309898079372
-0.054865320832197556
0.5216189507561542
-1.293208091862033
-0.7928952469333714
1.1548082898242056
0.7255737665175417
2.199217381556883
-1.8384811472481832
-1.327010847075704
1.2240136339762318
-1.131594336711846
1.194904738742497
-0.6638863028546469
-1.120894711720392
-1.0381029470532077
-0.9548465525491536
-2.0895242872012507
2.2026540466768023
0.15180812994206505
0.5876631712325567
-0.9235514114132974
-0.025025762848196464
0.576611991231254
-1.1422678726491453
-0.5945406856618671
0.4145466693093495
-0.3145425373767343
-1.5793101429593206
-2.4923824146366576
0.03089155217370143
1.7383751124539795
0.6135256206010645
0.15400062025056405
-0.010067637078494618
1.2671827029640865
0.6765412216707587
2.55725878552953
3.163279212936531
1.2661208135450974
0.6082411343069847
0.7516705364951596
0.2535210332722828
-0.43527679606795655
0.22482183139795905
0.2625762979209447
0.49598075913765927
0.19496198102079804
0.036643515960879114
0.885067184987689
0.09376788216719961
-0.6413664511911522
-0.5071835739267754
0.004295960315664371
0.33170180027640195
-0.25318120720346843
0.27658006688486814
-0.4031320328966234
0.367368587964027
0.39381127665235105
0.3251567381221675
0.015336602294172351
0.1410518569109773
-0.24006337959407403
0.14347243051562653
-1.0189031730708666
0.4195655840914515
-0.2708320123149265
-0.39247137400348525
0.5116713737200995
-0.10296938372244595
-0.48654202794120555
0.4718266003112456
-0.1217198590342173
-0.2044587262782866
0.4965292458905813
0.5817668201456924
-0.661962091295486
-0.0727745693035067
-0.6301471603028045
-0.2007981234279234
-0.5183172036709223
0.5581108069250295
-0.6077696129393153
0.46557431564674334
-0.21481569013947482
-0.8365627120636991
-0.3216880646622392
-0.41678232183115205
-0.4500441188299238
-0.61400417438138
-0.38779146027168654
0.25584774836665847
-0.44685643794248797
-0.5574383531881403
-0.5312628645991512
-0.2637096432905079
-0.3465441684927841
-0.6005471450028793
0.29862582979804086
0.16586440686110704
0.09587820251236387
0.6093281169920445
1.174535361685141
0.6057219567995497
-1.009870679651198
-0.06239117041408046
-0.5092104594900482
-0.42638585205306256
-0.6204791685118803
0.3359919361072601
0.9879200604654496
-0.04008575767643739
1.051298015490843
0.1565386708893018
0.4232936190450223
-0.8507110428088536
0.2941389251212206
0.6142149333894669
0.7507396820316069
-0.7022104007909001
0.7396804237114701
-0.1664668240004127
-0.006778226452775815
0.4969459008558168
0.5042144085890945
-1.0194696258781701
-0.22156688704170122
-0.40881148196939
0.03479322918661331
-0.33589435564657893
-1.0184566924253253
-0.5980283658731598
0.2841330329951099
0.3068752397489412
-0.6699393460885988
-0.3770268375586726
0.2503892748513664
0.30438438574665394
0.1978089552251261
0.16697480998401715
0.30054708714066763
-0.12418908495507813
0.36405254737925474
0.7914402978374109
0.7820676508425851
-0.09397771121515915
-0.6061725253209811
0.7800845882452536
-1.1913576261093566
0.2969152052180936
0.2834581535643801
0.02039628258570433
0.06643692043502786
-0.5113506163818142
-0.5039376087241485
-0.6855613339410931
-0.6513689481031997
-0.40610689834202685
-0.047983805858169935
0.3859342517442976
0.8206043588368642
-0.16164796575997803
-0.04278809265103324
0.24220169955418722
-0.380665338363818
-0.2546821997837271
0.9145667010753473
0.5502146662515585
0.8376381609274379
0.19825128813801657
0.6243829422236776
0.2082857940372141
0.8171838154639098
-1.3870413993590232
-0.6073669684759715
-0.5192149357128972
-0.38227816545677024
-0.040271643981350407
-0.1657472258610338
-0.37800049015733683
0.2681854766016125
0.42523498738421794
0.5209234351083109
0.7659094091329242
-0.05366322907017951
0.5005731094275214
-0.10531727177136282
0.32187978745907186
-0.24057994936366206
0.9696428496282969
0.11474576274989276
0.022491663779069464
-0.6544355450850603
0.623424690867822
-0.3745916648455093
1.0536667716955435
0.32619909184337775
-0.8362232179130525
0.2828122362392782
1.0319340518025077
-0.13144788430484722
0.14570297353775305
0.15783111625766555
-0.3595490580129019
0.6265859884259035
-0.6002518629283895
0.24412807913972578
0.6306100824692309
-0.019438455146257052
0.7400056064641731
-0.061501412717560044
-0.5175888872958634
0.28461443968509254
0.2674342118671196
-0.37070275578279227
-0.08981807913791029
-0.58632298916399
0.25041053601734564
0.7342175072753335
0.6786371147555772
0.2783072842930254
0.14956381208929057
0.6725515902043734
0.274524509515057
-0.8817008243401786
-0.8453149639894657
-0.4897501089286166
-0.21792195071200024
-0.009315795252946598
0.7480273315501897
0.16393393722382643
-0.17685741377641773
-0.5329977667396921
0.08355377220169788
-0.3058580546078397
-0.690426291320412
-1.4281901674718602
-0.6739381088313187
0.9610714410766839
0.6677047067616606
-0.3727823630058315
-0.2897571726348492
1.334743759464961
1.2254808658000482
0.07912704010907602
0.5077725124239577
0.22226669499131246
-0.14082573832202977
0.1387814336361475
0.3340003865420356
0.6694061641525721
0.187716332103118
0.11379969472597296
-0.35378695831864604
-0.027282192235443203
-0.7115370406373358
0.5254725177165512
-0.37806057576290564
-0.20589537662019328
0.1774617796172891
0.23245333680113991
-0.856666759291793
0.21576235736887608
-0.39284645760075415
0.5459484427344325
0.07286139685499923
-0.43509729444282963
0.6837754143872374
-0.4279664114613769
-0.39416661787978347
-0.5756267486896827
-0.4518180051189663
0.9399118124552327
-0.7871983153106314
-0.24803050105147945
0.5155386377593572
-0.30643912402710427
0.27824776100584214
-0.5197193259082971
0.05212867726826934
-0.15817517908633433
-0.3526226997640451
0.45507539659030305
-0.25061546725640077
-0.05936971757027079
0.4357824258592399
0.0885533043901299
0.007364541108084377
0.5923618427932069
0.29086230135108104
0.2798963626811536
-0.13974490314330335
0.1025299535881519
0.08221905452027484
-0.3307220165804977
0.6656689865207611
0.6996274304569163
-0.2952330080004474
-0.6820873477425532
0.00944525536540125
-0.07193945855553913
-0.3759550627940951
-0.5671276018220137
0.3282048660092155
0.6397141316236844
0.5077252963192735
0.7650859205150075
-0.17997267331421696
-0.6856912709162174
-0.37812915392199603
-0.6664435438871952
0.41555614273342795
-0.5127063504335451
-0.9126175966713426
0.49418422938652257
0.47707516570818176
-0.44563951994186224
0.8441327837843722
-0.10028314876366873
-0.5338480541682958
-0.6898778421632247
-0.35063322843882655
0.18696948209740785
-0.4214944159317776
0.5552078221243116
0.9621147829899801
1.2980457311918536
0.5154106534407755
0.9123975014457969
0.9414148015018937
-0.3894508824965323
-0.02763454545815619
-0.49022251849881127
0.705941873477118
-0.8632816428480328
0.09648998804146972
-0.41115785048303605
-0.7281764062388298
-1.037813562641909
-0.0043724065255031225
-0.6038982039701238
-0.47761231996479664
-0.6393168811363777
0.6839480804393443
-0.1436844360304818
0.13969681650426857
-0.19672249701181005
0.4206600710488715
0.20266047732358838
0.4822886824792395
0.19609737800437957
0.12004178759896833
0.7712468193172883
0.023433463782057046
0.38183370033394426
0.8900199097740233
0.18036708740870272
0.6307395553357389
-0.06931790139764343
0.013605432908497903
-0.5403479727562763
0.13151541449196819
0.40374214055828916
0.7060488685883541
-1.3613175271764977
-0.03103682278061548
0.6560315827003177
-0.2732268222403638
0.012178743848068375
0.6228440522812556
-1.4077646092829486
-0.4313748740291248
0.505831745351993
-0.9763280490854624
-0.1319125760587786
-1.0069283343228819
-0.3437562599790718
0.17669741270193184
-0.8980489108781328
-0.22308017146647774
0.6346864623926495
-0.29973451768950454
0.02874241972260197
0.8580211810122256
0.8642017627732227
0.018521217895320505
0.7388356852388891
-0.07205796836350588
-0.27027709379965914
-0.5479133486979185
0.3878715031400238
0.8663374328629144
-0.5038057119125363
-0.5272544953889707
-0.24253244652890793
-0.26694388231661587
0.35914491482270205
1.3375721333596329
0.9149660780499693
2.2071432992963467
1.397481104951743
0.10897681393942182
-0.18171392533610548
0.45407343189421173
-0.09869966400491031
1.1621513469129385
-0.21518095637415183
-1.1782593217707367
0.10840865769469138
0.24195453322191832
0.08197302677729706
-0.8634714871327009
0.4387266330313352
0.5996604517372177
-0.6028186416488571
0.4677404467748377
-0.38539538793953043
-0.4808973176271283
0.5717948063103057
-0.44130624353156545
-0.04414672519257006
0.7201413460457078
-0.19403103377313413
-1.1325832769711763
0.8750878578294717
0.207147752295983
0.3171997375475098
-1.2846503262661984
-1.56579816476447
0.0688943182381423
0.030165825695881623
2.5819295412619088
0.23964231364765193
0.5714227428551719
0.4463311459173369
0.34498345411367415
-1.3475763695321046
0.293606836700282
0.624641195073879
0.7748797384685632
0.019836907425985706
-0.1959594302546168
0.5185650451250108
-0.9564879903940398
1.688908813471145
-0.38490036864169325
0.1084345688723646
0.5165411719395268
2.3878262126292857
-0.43661666466530424
-0.6216967106365998
0.5496363351264701
0.2746512484670325
0.04812791687591189
0.08796718251680744
-0.6983084918515972
-0.11619877800008954
0.8059970769312246
2.210395211174673
-2.5391750622778724
0.118214430994182
-1.1933751558108963
-4.006309689083178
-0.032453424529449326
-0.21914571753834336
0.9629593868373969
1.0165369644136133
-0.8351180465163078
1.1568695762164476
5.8500120114962
1.4915133664091098
4.043590794395283
4.212352948268594
0.1060044154888122
-0.05391581891555991
1.329486253914049
2.849352740339298
-0.8418239365727855
-0.5612048516481551
-0.752835911224801
-0.2198242633172016
1.4256823459335082
-0.8089266397410709
0.9090056262409404
0.18876229866570354
0.2921952857185264
-1.5628891285343454
-0.3955787555265404
0.053599264075866904
-0.03693866704154547
1.195325779777132
1.5222330451380566
-1.012297514612423
-0.05783521862990204
-1.5329491196014837
-2.6806047112596394
0.06912194920117082
0.9285151892155633
-2.1490820708571094
0.5149004292784471
-0.8043968121340003
-0.19125769313400623
-0.6731849568827712
-0.1040379215879831
-0.8654276514793109
0.9292686137637295
-0.9878145796982525
-2.3974848962073043
0.5467882930637677
0.45682395669085785
-0.5348735394683897
0.7869939341925857
-1.0241717660078073
2.0732518292903346
-0.406658948859584
0.8129331986599938
-2.2888875796795327
-0.3971883747006702
2.0175249012435366
1.0839025475647908
-1.1872310162774662
0.26240670993331866
-0.2898489459037209
-1.5242821207383392
-1.3707656728641293
-0.04243459498834529
-0.0015575057885271887
-1.3666694623654738
-0.3876429665174343
-1.8619942284994346
-0.6265498698377994
1.4944077843050745
-1.9691726329422727
-1.4337155346051658
-0.6827034133099341
0.6947139392261514
-0.840120303226696
0.8951690568756381
-1.0564257724657116
-1.1526623494427217
1.9461895278052956
3.770420878984324
3.6772666542267705
3.113432196918964
3.654209051283522
1.4487000627200297
0.7316676639493772
1.266119499473307
0.8501643103987048
1.9084767234048066
1.5692627258228402
0.5103756707517774
-0.6997927825282539
-0.7173676765257028
-1.0004262230534025
1.0747439234374423
-0.3914756951795912
-0.14011891650527167
-0.9187338472538937
0.6495401318295722
0.014763167841283675
-2.166059969963515
-1.074188277086961
-0.5023256419806491
0.9555570156729798
-0.8752058129459092
1.8764904592137326
0.1838543550088294
1.1433143021458627
1.6410617576496498
0.13949070938186292
0.847360822453255
-0.0024450146936517703
0.8906290896392497
-1.5263817625117906
1.0553124202951738
1.016493262815736
1.7322621999413597
-0.6361301343247834
-0.4116324763830683
-0.2845313706028508
0.30547558684010734
1.345872154067958
0.15711089786805435
1.1671500121741838
1.0287944851693331
0.9162448395159368
-0.1022641342401307
-0.659543878308349
0.4498555901859512
0.4262114622373193
-0.3239266016250165
-1.05736829066977
0.7195059621757997
0.6007063835009966
1.5383550492349638
0.10479623251276814
-1.3280500850687453
-1.5277254018381217
-1.9006228490997268
2.4457285353094376
-0.7934288581445821
0.7274650118554917
0.536357645560662
0.361146824517214
1.8712990895026484
-1.0626930137056771
-0.3011710715683841
-2.541458914499846
0.23973995741063606
0.04054611248742146
1.4527835782570842
1.4040494207228509
3.1598617591386566
4.430620452485812
2.40926474236575
4.081296308300699
-0.5922642491029935
2.15955909670039
2.164016151849101
1.7617149483334373
2.2319434103251226
2.173868916982971
1.6529292630621046
-2.2307527768515265
-1.0544036635861418
-0.1051325661090999
-3.635071804584359
-1.863044976502586
-1.679389359980335
0.8174962365922622
2.4734148349405243
1.9485350313845922
-3.454154197571691
-0.9278060262131558
1.284474034105713
-0.009082957139009362
0.27040620006188826
-1.075939376104722
3.3181511650058537
-2.129302952572323
-0.8423907150236103
-0.22753376829838165
-0.32856791242399797
1.0296802720579123
0.07211815965614027
-1.4691658822363443
1.1040318857974565
1.2521102117914151
0.025683525285445097
0.7362505644650732
2.675135707198768
3.4789661177162334
-0.25884732232375546
-4.170765190019814
-0.3986783882352253
-1.4226436053049056
1.2597620621287042
0.6640327490756822
1.9477243331841407
-0.36122493103232234
2.340258803447202
0.2789295652984596
2.5858267707303444
-0.06811386203392455
2.259852502662571
-0.013659658538641095
-4.357790222163711
0.9313094272039899
-0.48166653900192147
-0.4648740304745059
1.485005455255794
2.359421258087358
0.2604654174731628
-0.01295865681063639
-0.6305086270041924
-0.1140676098817098
-0.40079448577508425
1.9064039940957285
-0.02784920543864458
0.24596075341916296
2.0478820138703684
-0.34597477513760055
0.5773708420903755
2.118401333059271
3.537365832859978
2.7303496591922567
2.675649353318238
6.463172141118562
-0.4159838430917375
1.6264518186694201
5.081234950239229
1.4470664012757912
0.826015256335755
-2.6423267136324275
1.4783662222108236
2.833095491469851
0.02077665107358595
-0.49218382653019577
1.073250676561519
-1.1261361983187168
0.03855727407670628
2.9535384575071997
0.04322363863033524
-2.5759031411568616
0.9942971585227686
-1.145935023674547
-1.8397321965022948
0.5043111311358888
-1.5873374465968326
-0.22401003476125303
-0.40383060538246823
-0.8652225768641845
3.563767741046153
1.894743768113161
-2.313033145067621
-1.0689079880828187
-0.49263418138800336
-1.0163514928199566
-1.0913325053046015
-1.7173206739506133
0.1648041047406481
-1.3831327959831299
1.3547446301803827
0.8128432603770527
-0.059011311968460906
-2.9234357497052876
-0.5116058729532902
-1.1509960994264752
0.4151242254801336
3.1162909756548123
0.35199764240100784
1.3646502896328037
1.3699316008236435
0.40855262610894566
0.2101970699938825
-1.596178998226838
0.3890887825822639
-3.381857148070782
-1.441456199328515
-0.3498537611795936
4.758075603404836
0.378432791662068
0.5205545803577764
1.1475109958601315
0.04186197696122351
0.18163456123632643
-2.424287181985319
-2.117147354537427
0.8156880706293481
2.2898194060568025
3.1391620713591437
0.7031602204719531
-0.6923539506500237
0.34769612849349457
0.19269889468290524
5.534748670662113
3.6808974046750773
5.560176518899275
4.634049715141528
0.6491902348628821
-1.4249044816305467
-1.9758719024509344
-0.9007355197378374
1.2114190181198978
-0.5722433765002696
-0.8211034812815703
-1.4868781376972515
-0.25597968242906133
-2.4467321230312455
2.278581176572759
-0.8072644260749124
2.625487511772044
-5.840574637616783
1.1730584301176727
0.3100011659068355
-1.0730161431655976
0.1547161239486058
-0.03875538550042377
3.2294693892819097
1.3051115020734663
1.5125624572048149
-0.7577734386867869
-0.48967723825244436
-2.550411930693522
-0.5907865376902711
-1.0965249589936183
1.6973817491385266
0.09091656298611556
2.0051309331377123
0.5395317881284069
1.6422501333118347
1.1339296828907077
-1.7328729520194974
0.767148071873472
1.4335160038258692
0.8396203624660432
0.13998121437648003
-0.5255719417054809
-0.45851271185506587
2.7986801725842674
-0.8856865666876438
1.6832395820259085
1.2702324317449754
0.270573839652219
-0.8186880837453037
0.9614926985905031
0.22318937254915663
-4.289526956778316
1.683589914463897
1.2400788513162433
-1.9845990041955863
0.7799533462939671
-2.84209009020844
-0.013065426800365848
3.0221203347631973
-3.8084831312566116
-0.759747620035135
0.08370729077025199
1.280024546017194
-2.3450879252216073
1.3452572986370215
1.2513513347600074
3.096435399252601
0.5192794231757394
1.1210336823451483
2.5738955709631943
1.5478261437970366
0.02808737415813023
4.786272718529151
4.833880132454163
3.403477210545152
1.3370691936130519
-1.2586355798606874
2.996449295159077
2.730938205463377
1.2432643321716164
4.186595644134683
-0.495719396173308
-2.402648469632503
-2.019141669645123
-4.390145511158446
-0.06501180428137843
-0.496768342966295
-0.5575332903861098
-0.9147725821918372
3.023920036608679
2.184718869538041
2.7429714706811543
1.0336072525098947
0.4409922173538367
0.16041170146443462
-2.3724074895004983
1.5816859311593454
-0.5259710393733811
-2.7168957766313158
1.7760596115377854
1.16798979947877
1.1965999877924705
-1.0959549949687994
-0.18439745711198366
0.3841567175648618
-0.563329904723868
-1.6884404135397717
-3.2661919041058236
-0.7394416941615581
1.6619214902099477
0.09367574596414022
-1.5055491133346197
0.854524443334846
1.839609688478818
-1.0657130650848727
0.4048625671038444
1.520285785194491
1.7269410444867987
-0.8936087098087204
-1.5510278073967152
1.6820281035336178
1.6732190167403438
1.787041215353538
2.353150285724771
2.049706908053434
-1.2222016290624218
-1.3447244017341364
0.8078212199998928
0.05805372118347355
0.2591628270160781
-1.7273933139168371
-1.073368623392927
-2.3935758514257506
1.8895222634128865
0.2079690940743394
-0.909842518602894
0.21322152329266722
-0.33749186558406497
0.9784299989477759
-1.5287405470365871
-0.5013372938909664
2.0361178266445017
0.8608413225790819
1.9788652222164955
3.6217584367144062
4.985673574050989
4.635769817609406
5.24295817355591
1.2797005160014225
-0.09033909339481104
2.8749339906098395
0.20358696962548967
0.36434226817869997
0.0923439821022729
-1.1060692397940897
0.6145793511596366
0.6240481873498682
-0.6100250265079141
-1.2402694898712894
1.2199770631466678
0.017428299536660474
-0.7524445809045327
-0.46144681970550777
0.21861422856337587
-1.4841702117078808
1.1511198441097545
-1.2238677582615327
-0.6574943836973668
-0.5437378271815616
1.5129906600372827
2.361239242475982
-1.665472592213133
0.9801580892210717
0.2159120134924718
0.9739896553408366
-0.11933370860595621
-2.159751940757645
1.6377015649444209
-0.45190510462644023
0.6866471371040668
-1.0792945202409931
-1.6463765856416648
-1.0344863816195264
0.43542717723857943
0.016691734887194776
0.8562733989327282
-1.933866649155917
0.9638125677156193
-2.823446113674284
2.0324640220036243
-1.7406899263933742
0.47385791333450955
-0.40503068730470415
1.237849370483074
-1.123924403864827
0.10553029056377533
-0.31810663871707484
1.9893629490643803
-1.1963770523468829
-1.5081418203826824
1.0310208641817342
0.8458579515755056
-0.5485900019329037
0.3232641531827676
-0.4681400135712066
-0.02082676035561673
1.2723212226997964
-0.31179490954804
-0.24872888191829395
-0.12618663761953763
-2.991531934924882
0.07919771435928213
0.25613653706937933
-0.5632010263767947
0.7093804166459838
2.272680817482079
0.8177853020315946
6.924536579112399
5.507996554074666
3.1925359103614213
1.847268680788844
2.3024381231575344
1.8283493056469007
2.192069583622562
2.982637930247359
-2.5113770903212282
-0.6822313782717265
-0.44815673136389045
-1.4040359972955254
2.044944329054735
-3.8206622108583987
-1.758576827662211
0.3816533251045456
1.6486419827545336
-0.48124911140277354
0.3496669348311223
-0.7102511046438167
2.184489568646576
2.221049914804155
0.7945626479210841
-2.345075274323984
0.2487787859299902
-1.1064333155077855
0.6329623038121842
0.20884631183284608
0.82678621753189
-1.3342536548563755
-0.8946297754656802
-0.9691075459415714
1.559393994230003
-1.3413383252343751
-2.080839046961289
0.6783908208779147
-0.5474159404041551
0.9902428015866772
0.620887613545711
-0.7321967231293804
-1.09584057744219
-0.38199737477178103
-1.8134347447740953
-0.9889519358992689
0.47494453545457693
-1.3461156790212567
-0.7322546594592025
-0.2879249007649997
-0.4200983305814382
-0.4953296123826891
2.265985551091203
1.414588503974439
1.2412600738496553
-0.507125477333379
-2.1472935948553147
1.6291547558153188
-0.09967764118674916
0.7854281873596801
-0.8594494155970482
1.8614179761989071
0.28487396435759005
-2.436451578724728
1.3467741779179772
-0.07667857697729097
-2.001180620551744
-0.8003035206223229
2.2594829650131447
-1.236211481088413
1.4213979146915607
-0.5867707321556381
1.9302699504843615
4.951322639061491
3.643279568097692
5.6794933547732835
2.766089252816402
0.9460926843086719
4.075586463566944
-0.323237281585789
-0.8765298740842868
0.6621317874251936
0.7611791548780515
-1.057913720896738
0.6719261507060926
-0.5641030652555639
-1.8543986995535562
-1.250364378356097
-1.5437907116005651
-0.6356184911811354
-0.9217949297155734
-0.12968395444115613
0.3868842115527498
-0.6309741342158975
0.4542482176954358
-0.05934732796309097
-0.6625363252994745
-0.072310557304256
0.12802800561004873
2.703797188777644
1.1961608934397359
0.9202053161909413
-0.68012978538089
-1.2666701191197434
-0.10648435295685543
-0.04558898978802378
-0.4314508446942261
-2.0612447532424376
0.2933206770981872
0.10535189267342393
-0.06673552511191272
1.1897908679316744
-0.36665646799393925
0.1070466479190361
-0.7373931714271632
-0.9282755649940664
0.3624134238722196
0.014537210634882697
0.17713592959582142
1.0121503068061026
-0.6375151443197616
0.7144894600977967
0.34037251788110723
0.13146169202191668
-1.2665934179145613
-1.042894049015932
1.6819295104101424
-0.00631083637200458
-0.38550551193405547
-0.9066941927677817
1.110358560021249
-0.637308425539578
2.557873294887802
3.4157851391086487
0.3915239492068139
0.12128035990507169
-0.0011431146644842322
-0.5945506289288428
-0.25363784989197447
-2.6567246583391158
-0.4611557752530916
-0.6549657523764512
-0.9271966879428772
0.2187972391537114
0.7070244088727061
2.2894482551872835
2.235288090676091
4.047514337377791
2.16506256680441
0.5403869214195928
-0.8046687877508146
-1.1815686105069916
-0.9852943334904187
-1.1137074967214058
1.2478498573730903
0.0629648900579067
-0.3810410717323966
0.33044552298240415
0.40875089389935026
-2.267557420831044
-1.667461509545166
-0.6086015915885434
-0.28089564835281483
-1.811663388497059
-0.01678391673262597
-1.2280527564126225
-0.16553507168197024
-0.5492924466680729
-1.6007431025214909
1.7481457797143398
-1.4406787297186119
-0.6613074486498163
-0.8518622514653157
0.7480278633229216
1.311506666740775
-0.6359254360029803
0.8497374342860475
1.9054202090850139
0.447237614823491
-1.8927500153653023
0.0432083191472816
0.25567129523334275
0.9334739381872668
-1.0602018563262003
0.4299082026329551
0.49935961424417774
-1.0513116248305483
0.7108542125346686
-0.35063034026736417
0.6527213163181327
-1.3380468809896886
1.9719675026166308
-0.45069042743495247
1.2034885835115767
-0.2091064303814309
0.45725519498685596
2.4083422097362104
-0.028643268079400402
-0.009424670202895918
2.028808857828835
1.2649242590565055
-1.6303243927924704
1.1804909729943411
2.9874488897925104
0.8079908896491941
0.5300808725598845
-1.410043760840372
-1.0230152577241443
-0.03291502884317565
-1.4902256746364202
0.6710609797665236
2.0609467536124115
-0.5872951233929867
2.3021877566213713
-0.022768915047927163
0.4805945913273315
2.4714369568936907
3.445414855307032
4.976070302281761
5.262943173315145
4.963782355353439
0.8461681059199186
2.876228039156417
0.563706901346973
0.37905910077233584
-0.5228143087017774
-0.6656271050844929
-0.19660839018838422
-0.8758021581696649
-0.3270787308069402
-1.4884632763489845
-2.466282259764089
0.26434369015256337
0.1701980757217122
0.3250549238955257
1.3639039069739487
-1.9242452266127763
0.6902765755463894
-1.2509985207302547
0.5999011036609125
0.7651254306205347
0.10605903970075378
-0.6452407931323727
-0.42274441655780415
0.3269088965661794
-0.35363790643014004
1.6355069440571863
-0.8537730842635617
2.316814557113313
-1.4153405151504037
0.46847631628378084
-1.3979407468567593
-0.6696994760701918
1.6956191737756185
0.06149456866291632
-0.30083259860292616
-0.09214336058128436
2.0449766934338682
0.644570794570706
1.3920775746592489
0.4468561355288835
-0.1464786758642549
-2.584760749104349
-1.0063794538467619
2.215410176320611
0.0658026879540547
-0.32507084522729107
0.6946818039683107
