-3.4749863
-3.2343676
-3.1514617
-3.8811104
-3.8024222
-2.1051715
-3.6504434
-3.636115
-3.6118167
-2.7014866
-2.6188591
-2.9460007
-3.1901557
-4.5267529
-3.5111043
-2.9940593
-3.9971558
-3.8921772
-3.7196635
-4.2245689
-3.218119
-4.1082127
-3.2758404
-2.2804124
-2.8432282
-4.3828256
-4.172636
-3.4859333
-1.8977234
-3.6645482
-0.27698825
-1.6259806
-2.9645634
-2.6018607
-3.3199764
-3.1325418
-3.9661888
-3.0073148
-3.0820611
-5.0561839
-3.5349361
-3.7056505
-3.0604469
-3.0970639
-3.4471162
-3.4780741
-2.8282341
-3.8255993
-4.0145647
-3.5143872
-2.8484134
-3.284897
-2.95522
-3.5870565
-3.6361916
-3.6439009
-2.2713939
-3.4807612
-2.2964717
-3.1070058
-4.0826378
-2.2525503
-2.9118371
-3.3032371
-2.8914568
-4.2090193
-2.1812204
-4.3061273
-3.2506536
-2.0372596
-3.8453806
-2.849542
-4.3522634
-4.1496651
-3.4465328
-3.9743693
-3.9658136
-3.2485001
-4.3272956
-3.3590297
-3.5328766
-3.5588395
-3.8601004
-3.9848614
-3.7214482
-3.3800526
-3.941614
-2.6191242
-3.5848653
-3.5316669
-2.9224717
-2.0806005
-4.2649196
-3.739726
-3.6956219
-3.0481
-3.6587116
-4.062144
-3.2344867
-3.6171038
-3.5446364
-2.375433
-2.8267562
-2.2598424
-3.2785549
-3.0443903
-2.7640334
-3.775926
-2.3620242
-3.4859644
-4.2714965
-2.9363628
-2.2614164
-4.8830476
-4.3551567
-3.3095826
-3.6540396
-4.0663451
-2.5567824
-2.1064742
-3.3663931
-4.007862
-3.5846162
-3.0238627
-4.7492243
-3.5186748
-3.1803998
-2.7608058
-4.1807436
-3.6585812
-4.1119994
-3.4020144
-4.1820347
-2.6310894
-2.704033
-2.6474492
-3.9249775
-2.8181035
-2.3650727
-4.1778525
-2.7651939
-2.2826959
-3.8947762
-3.1497217
-4.1325079
-3.1004018
-2.8747906
-4.0167338
-3.1098734
-3.4600671
-4.5499132
-2.2439881
-2.6583934
-2.424451
-3.1647596
-3.9711136
-3.7742608
-2.1783366
-4.034232
-2.8353064
-3.6444336
-3.8008955
-1.9807753
-4.4196387
-3.8039139
-3.742956
-2.6145987
-3.33102
-3.6416727
-3.7907845
-3.6459044
-4.176875
-3.2407082
-3.6000663
-4.1601382
-3.0273867
-3.2874929
-3.471285
-3.355606
-3.27177
-3.3978126
-0.4264065
-4.0311616
-2.6556748
-3.1270404
-3.0982279
-2.5162747
-3.4284657
-3.3836241
-3.6621479
-3.9351753
-2.9191241
-3.5490614
-3.4803859
-3.7335951
-3.2779463
-3.6003813
-3.2087069
-3.4664326
-3.0115222
-2.8156073
-3.8356587
-3.0084345
-3.3014787
-2.8594682
-1.5801762
-2.9063642
-3.3835845
-3.1553776
-2.8564442
-3.1790726
-3.9771203
-3.7595331
-3.045298
-3.213731
-3.8553501
-3.8548985
-2.9645151
-3.6973618
-2.2523997
-3.141446
-3.3751836
-3.0149051
-2.430441
-3.3523735
-3.0668259
-4.0051104
-3.267444
-4.1268619
-2.5533212
-3.1720028
-3.0650473
-3.8872662
-2.8031376
-2.8384309
-4.5539389
-2.9696424
-3.6651131
-2.9861807
-3.1458079
-2.6095811
-2.9687552
-2.872331
-3.9503622
-3.6825651
-3.769176
-2.9790238
-3.5576104
-3.6309689
-3.6706299
-3.1929686
-2.5621124
-3.1960014
-2.4871225
-3.5827945
-3.4113895
-2.7205635
-3.3388971
-3.9303402
-2.9472142
-3.0353434
-3.2647683
-3.064156
-2.5464296
-3.6065758
-3.3891515
-3.5683381
-4.2680885
-3.1733811
-3.9687386
-3.6043029
-3.6595366
-3.7179894
-3.7357261
-2.0284574
-4.6049742
-3.7038695
-3.9252488
-3.0942388
-1.1244854
-4.5897216
-3.01452
-3.8076542
-3.0158224
-4.2353798
-3.1086515
-3.2395451
-3.9602738
-3.582011
-2.3510708
-3.8352128
-3.9069005
-2.0080666
-1.0231052
-2.1623265
-2.1130203
-1.2613352
-2.0922521
-3.3371601
-3.0082452
-0.78867067
-2.0874446
-2.6365788
-2.095428
-3.0831831
-3.2852678
-2.0840935
-2.9121773
-2.423541
-2.8857942
-2.8063955
-2.3800381
-2.4599625
-2.4076406
-2.266043
-2.2176785
-2.5744404
-2.3553148
-1.0269675
-2.1913161
-2.3954344
-2.2629881
-1.8778009
-2.7693302
-0.67269761
-2.4786073
-2.5448908
-0.88488746
-2.3484921
-2.9960107
-2.4336662
-2.3415231
-2.3072792
-3.2658132
-1.5218729
-2.3603276
-2.6525513
-3.1058151
-2.1556143
-3.2883619
-2.2552471
-2.6169267
-1.0160938
-2.7352585
-1.5220192
-2.7251511
-2.9433985
-2.2918193
-3.0151639
-3.0287009
-2.3418615
-3.0396642
-2.1527556
-3.0663419
-2.7036064
-1.031137
-0.15281274
-2.6818208
-3.1978202
-2.0757216
-3.4106511
-2.672148
-1.9808934
-2.2108757
-0.47654573
-2.6190075
-3.6660139
-1.8675685
-2.3150939
-2.5823236
-1.4347561
-2.8447366
-2.4348856
-2.5229275
-1.8557518
-1.242678
-3.3336741
-2.8379515
-2.9733266
-2.9779409
-1.4956986
-2.4870045
-2.6274772
-2.5330048
-1.6123308
-3.1012278
-3.0086052
-2.3869122
-1.1970564
-2.5620763
-1.6525034
-2.5276951
-3.5138357
-2.3994168
-3.0741128
-2.4762905
-2.8075356
-2.818716
-2.7695978
-2.5636831
-3.0917755
-1.0502738
-2.5887838
-2.0800408
-0.92252044
-2.8301593
-3.056129
-3.1868939
-3.4790952
-0.54601933
-2.200604
0.19989929
-3.2321476
-3.1483832
-1.9190323
-2.9255523
-3.019011
-2.9119888
-1.707827
-1.1836698
-2.7152774
-3.1487499
-1.76578
-2.0663806
-3.4319379
-2.6600012
-1.3904087
-3.0811344
-2.9580678
-2.184759
-2.819361
-2.166615
-2.87378
-3.172064
-1.3113311
-1.2518725
-2.2079443
-2.9891559
-3.7112028
-2.9122718
-2.0922976
-1.9576737
-2.5544866
-0.82945022
-2.6702149
-0.98756701
-0.83676883
-2.9004751
-2.7823423
-2.5833537
-2.6580883
-0.84264806
-0.75455463
-2.5729479
-0.92823585
-2.931462
-2.6855015
-0.44072574
0.48428314
-2.9334213
-0.72773326
-2.9437145
-2.9933672
-2.5640361
-2.5142855
-1.1175836
-2.5082108
-3.0105621
-1.5535032
0.61063975
-1.0883396
-2.7591513
-1.6090508
-1.4764947
-1.2697713
-1.5490825
-1.1114918
0.059222244
-1.2267338
-2.634596
-2.1362959
-2.7662152
-2.5534817
-3.7251904
-1.9257603
-2.5953247
-2.2447033
-3.7084526
-2.2169351
-2.762259
-3.1976666
-3.1445733
-3.4178017
-2.6402633
-2.3392737
-3.5739558
-2.8915279
-3.4514903
-3.2815873
-2.607641
-3.4319085
-2.2284217
-3.638675
-3.7580926
-3.0059934
-4.0107765
-3.5165759
-2.469447
-3.2345936
-3.0412313
-3.5023401
-4.1418248
-2.4717793
-2.247293
-2.7351307
-3.2279708
-2.817532
-2.832608
-3.7205384
-4.2106994
-2.7659314
-2.1598125
-3.5737343
-2.4765377
-2.1909447
-3.1983638
-3.504199
-4.1567875
-3.6946111
-3.2557521
-3.7442573
-3.3408749
-3.8378838
-2.3804182
-3.5629288
-3.9120113
-2.5961279
-2.6904287
-3.5398161
-3.3212202
-1.861219
-2.995656
-3.509784
-2.8346393
-3.6341178
-3.1391821
-3.0867093
-1.7369038
-3.4551099
-3.9137973
-3.7612386
-2.834517
-2.8466063
-3.7589183
-2.8998509
-3.8032033
-3.5864342
-3.3388785
-3.1419179
-2.8226397
-3.3354134
-3.9893265
-3.686409
-3.4032079
-3.0956712
-3.8591035
-0.77628434
-3.2855222
-3.7812243
-2.6870073
-3.8510304
-4.3820081
-1.6999924
-3.6060563
-1.9796261
-3.2709382
-2.3026343
-1.738976
-2.3618145
-4.3662033
-3.6946462
-3.33904
-3.6965517
-2.6121481
-3.8600052
-3.3930863
-3.8605307
-4.505561
-3.5413092
-3.6221621
-3.7090507
-2.7365239
-3.007858
-3.6769388
-3.3687763
-3.7375654
-3.1696031
-4.1277465
-1.9665161
-1.9734364
-2.5937239
-3.5915944
-3.5675651
-3.8328208
-3.1242552
-2.6362609
-3.3506027
-4.3546238
-3.498259
-3.7575677
-4.1133392
-2.0882757
-3.1779154
-3.4385833
-2.6047579
-3.8854906
-3.1465318
-2.7086361
-2.8676914
-3.7690154
-3.7349301
-3.1793822
-1.8195935
-3.8276049
-4.0664858
-3.3282568
-3.6617353
-2.7077173
-2.5240769
-2.6919378
-3.0985593
-2.7204241
-3.7049634
-2.3553409
-1.4435384
-3.1632593
-3.7183013
-2.4523348
-3.6232903
-2.6021715
-2.9977045
-3.6396253
-2.7849406
-2.2388808
-3.6181604
-2.8276997
-4.4838298
-3.6416383
-2.5353181
-3.7376144
-4.3653295
-2.6480816
-2.2817793
-2.2519985
-2.375193
-3.1715486
-3.7640599
-3.2916776
-3.1493494
-4.1380142
-2.6679372
-4.3922648
-4.4918121
-3.3578238
-2.9269108
-3.794128
-2.3814505
-2.8148672
-3.9920626
-2.5156065
-3.0045186
-3.8250313
-2.6453193
-4.1862828
-2.1556458
-2.6624486
-2.6859303
-3.7685807
-1.4060322
-4.3271421
-2.5574346
-2.6092223
-3.5080959
-2.6766613
-3.6814949
-3.6987726
-3.5316236
-5.2170525
-3.5190719
-3.7498515
-4.4889086
-3.0650646
-3.4735597
-4.0492101
-3.8003635
-3.2583298
-2.8134961
-3.5160519
-3.6685498
-3.9309828
-2.7255357
-3.4628392
-2.0606926
-1.9014479
-3.3070861
-2.3926342
-3.8457118
-4.4039253
-3.6989914
-3.8021991
-2.8790584
-3.1186621
-3.7692781
-2.5277829
-3.7891942
-3.9658996
-3.4122665
-2.2132352
-2.8482651
-2.8364838
-3.0410678
-3.4038882
-1.249565
-3.7275847
-3.4965923
-4.913347
-2.5254975
-2.9550864
-2.1841904
-4.3285928
-3.0276908
-2.2215832
-3.1344571
-3.4853249
-3.5457538
-2.4921748
-3.1082991
-3.6059306
-3.7250409
-4.0602687
-1.9740127
-4.1627476
-3.5320276
-3.1907224
-4.6054178
-3.8096094
-3.1902624
-3.179184
-2.8351301
-3.3120711
-3.2199833
-3.0371966
-3.4719081
-3.1817922
-3.2510724
-1.0364407
-3.4138971
-2.7299598
-3.149418
-3.0856717
-2.7772917
-3.1329966
-3.7593063
-2.672981
-3.8087959
-3.2171454
-3.6576359
-3.4208466
-3.3310542
-4.22323
-3.4118415
-3.1177352
-2.5032911
-4.2340474
-3.318656
-3.8074114
-3.380822
-3.0684561
-3.1634107
-3.1489476
-3.0968301
-3.252104
-4.3316214
-2.6144117
-2.4780086
-3.5811186
-2.2735266
-2.9012689
-3.6912598
-3.6567781
-3.9268649
-2.9867922
-3.4651097
-4.0888102
-3.3673598
-3.3701396
-3.3225008
-3.3281995
-4.3023007
-4.2186795
-2.0930484
-2.2951163
-2.3502571
-2.1624931
-3.6752564
-2.8131903
-1.7642268
-2.873448
-3.8651698
-3.6831389
-3.0992475
-3.3999799
-3.5840531
-3.0632496
-3.6240435
-3.4279487
-3.2978516
-2.3792601
-3.6122985
-3.0628649
-2.9228779
-4.0183158
-3.9252686
-2.8852692
-3.8674987
-3.4152678
-4.1146283
-3.2198586
-3.8151236
-3.3512201
-2.522003
-3.8115223
-3.2607863
-2.2758052
-2.7582328
-3.3453778
-2.2059461
-3.9340001
-3.9373411
-3.6996594
-4.0485152
-2.6171018
-3.1767725
-4.8027275
-3.8751064
-2.6172114
-3.892961
-4.0408148
-3.8490624
-3.3811885
-4.2992525
-3.0250492
-3.1152617
-2.9000857
-2.7864167
-4.1926213
-3.7435837
-1.6012479
-3.7452115
-1.3780935
-2.7073519
-3.3156856
-1.7196944
-3.2398893
-2.7953163
-3.1730054
-3.5424965
-3.5566854
-4.6685612
-3.7033073
-3.5756419
-5.1098777
-3.1823494
-3.2622866
-3.6256434
-3.6912373
-3.6460392
-3.4124586
-2.6400874
-3.5421902
-3.3253178
-4.0873202
-3.9195003
-3.2503598
-2.5418415
-2.5825838
-2.7809992
-4.421783
-3.2240497
-3.7589064
-2.7577626
-4.1809104
-3.2740775
-3.4449933
-2.2169381
-3.3837802
-3.7766559
-3.6806029
-2.3055298
-4.0211161
-3.6404294
-3.9732805
-3.321209
-2.8209321
-3.6272869
-2.5677628
-2.9787032
-3.3201034
-4.1762039
-3.6731387
-2.3812928
-3.5582514
-2.0537557
-4.1135474
-2.1764059
-2.8097193
-3.6217808
-3.9190132
-2.795731
-1.9164228
-3.4210392
-2.5782963
-3.5828557
-3.0171009
-2.0607119
-3.5947018
-3.4110593
-3.8607197
-2.4256055
-3.7751922
-2.6423248
-3.5166692
-4.0363007
-3.4694518
-2.7928641
-3.7174019
-3.8713108
-3.296377
-3.753041
-4.4458709
-3.7516293
-1.9616248
-2.1455444
-2.1139993
-3.7458014
-2.8448295
-3.4799937
-3.5704016
-3.7925785
-3.6731983
-3.9601754
-2.5905106
-2.3245853
-1.8757901
-3.4450371
-3.6798792
-3.5205637
-3.9289932
-3.3878717
-3.8487136
-3.588816
-2.9810221
-4.2735943
-4.0909901
-3.7986429
-2.9867639
-3.7885234
-3.8862093
-3.4988898
-2.5885666
-3.2969084
-2.1079305
-3.698299
-2.1547998
-3.4507823
-3.4437538
-4.4724319
-2.6181664
-3.4102516
-4.496708
-2.3183877
-2.1014074
-1.7285929
-3.3357767
-0.31343082
-2.9342483
-3.9314493
-3.4455599
-3.5010483
-3.3207419
-3.0299921
-2.1267769
-3.7347043
-4.0906571
-3.7713937
-3.4127899
-3.7731515
-5.0334177
-3.1922549
-3.7101748
-4.0595611
-2.8752931
-3.3767859
-3.2925026
-2.589994
-3.623825
-2.746368
-3.3617176
-3.6365913
-3.4705378
-3.5064519
-4.377983
-1.5276149
-1.7987615
-2.6838572
-2.5781343
-3.9345654
-4.1368733
-4.346637
-3.5046343
-2.0358607
-2.3677106
-2.6956788
-3.4022247
-3.0417445
-4.4217268
-3.2016265
-2.8390301
-1.7643376
-2.7622571
-3.9319558
-2.9141566
-3.4794908
-3.3906057
-3.4536531
-3.7357537
-3.4955729
-3.0850409
-4.1169699
-3.7972578
-0.90811902
-2.5873842
-2.6511537
-3.2930986
-3.829391
-4.0526789
-2.5470301
-3.4776393
-4.101144
-2.7558345
-3.1934036
-2.3538395
-4.5174579
-2.5034644
-1.4285229
-3.5518967
-2.5075891
-2.8375835
-3.181091
-3.545513
-3.2590315
-2.5781808
-4.0938812
-3.1038429
-2.8567642
-3.8916441
-3.7739039
-4.1711968
-2.1500055
-4.1811639
-3.0725667
-3.9156823
-2.6735236
-2.0972023
-2.9680711
-3.7428983
-2.7429587
-3.5494013
-3.7146635
-3.3682808
-3.5853429
-3.2409714
-4.1930025
-3.1316062
-3.2796292
-4.0043131
-3.7584894
-3.1457412
-2.3693866
-2.8391614
-2.5075449
-4.2316509
-3.7415395
-3.7887971
-2.4622121
-3.0308443
-4.1368561
-2.8479768
-2.6988788
-2.4811667
-2.719688
-2.7704945
-3.7331596
-2.8778775
-3.0639147
-3.4225692
-3.3257859
-2.9885005
-3.3131099
-3.4562713
-4.2926639
-2.4993171
-2.664687
-3.4102074
-4.3019385
-3.1569522
-2.6585192
-3.2691038
-2.9256868
-2.0318471
-2.8768484
-3.6160326
-3.3526567
-2.8605605
-2.6446762
-3.9715645
-3.459274
-2.8263502
-3.1203632
-4.0726613
-5.0099371
-3.0612921
-3.3344547
-3.0968948
-2.2795021
-4.3552365
-4.2728882
-3.6455259
-3.8205806
-4.5471853
-3.4470921
-3.4668729
-3.7618066
-3.1612936
-1.9025776
-3.3126938
-2.9116616
-2.6694967
-3.0534965
-1.1667834
-3.6744495
-3.6677187
-3.3174081
-4.0707035
-2.4612294
-2.8969576
-3.4260233
-3.8521325
-3.7450081
-4.687693
-2.488047
-3.6085446
-3.9776496
-2.7449684
-2.2796824
-2.6975108
-3.7943132
-4.0401773
-2.1795821
-3.4415006
-3.5817892
-3.7807889
-2.0789433
-1.203945
-3.9667468
-4.6370435
-3.7650729
-2.4239575
-3.2355417
-2.928334
-3.160221
-3.7385992
-3.9378614
-3.1803997
-3.2047066
-3.0477166
-3.012698
-3.6072226
-4.2652301
-3.5966414
-4.21759
-3.9643056
-3.7922504
-3.3772682
-3.2462699
-3.8803208
-3.3341055
-2.1604852
-1.902031
-3.5910036
-3.48076
-2.1043674
-4.1368241
-3.9208714
-4.0966211
-3.7952553
-4.082261
-3.2122202
-2.7669938
-4.428533
-3.3314832
-2.3394681
-3.6240529
-3.6331701
-4.0438673
-2.3765531
-3.3489295
-2.0676355
-4.8047635
-2.8341056
-2.9706447
-1.6811976
-2.5759926
-3.8575112
-3.4807932
-3.7094057
-3.1566254
-3.2167073
-4.4344722
-3.2842174
-3.1715013
-3.9757204
-3.1494946
-3.2074464
-3.7358809
-2.9203364
-3.2318592
-1.6682489
-3.9824228
-3.1629775
-3.5560757
-2.9369318
-1.8228887
-3.1952063
-3.6138255
-2.7341486
-3.1338094
-3.601659
-3.1069804
-4.0848476
-3.5427059
-3.1572732
-3.218405
-2.6401119
-5.1373033
-2.8107122
-3.9449084
-3.0500229
-3.0436661
-3.5401855
-4.2699725
-3.3103722
-4.0602432
-3.7962494
-3.2575363
-2.3903826
-3.1357258
-3.6556715
-4.4364872
-4.6259349
-4.0304718
-3.2563956
-3.2012361
-2.8534205
-3.6812048
-2.621202
-4.3984334
-3.2396946
0.22400615
-3.5154028
-3.438957
-3.3710367
-3.8931767
-3.2784968
-2.6683421
-3.2353613
-3.5772433
-4.6156244
-3.7657017
-2.8682043
-3.6680635
-4.1091126
-3.9473568
-2.7474125
-3.8310484
-2.3750266
-4.1866352
-2.4761324
-2.4149649
-2.7330049
-3.3379892
-4.5388993
-3.4992768
-3.6341604
-4.6065793
-2.825024
-3.002867
-2.9895493
-3.2664283
-4.0377544
-2.9635765
-4.0727128
-2.8685139
-3.7915449
-3.1635515
-4.4521359
-1.9172979
-3.6529626
-3.715833
-4.1613166
-4.0422424
-3.2040858
-3.2632087
-2.5046598
-3.4658547
-3.1424601
-2.5399047
-2.2129869
-3.4696
-2.371358
-2.1612623
-2.5718112
-3.8058029
-4.6754892
-3.7455986
-3.2956645
-2.5939197
-2.4396208
-2.119684
-2.8799472
-3.1149847
-2.9999414
-3.7905388
-3.2155074
-4.2057474
-2.627503
-3.3524836
-2.3368752
-3.9703015
-3.4891322
-2.1978957
-3.1627699
-0.86106078
-3.2478641
-3.1903655
-2.6262198
-3.756948
-1.9777213
-2.7758001
-3.1544643
-2.8686217
-2.4609468
-3.077702
-2.98507
-3.1539431
-2.7362983
-3.3689602
-2.8003253
-4.1884574
-2.1499041
-2.2961054
-3.6127981
-3.4988737
-2.5364692
-2.6371206
-3.5710193
-3.7118036
-3.5540734
-3.5586223
-2.8486325
-2.0167956
-3.3541915
-3.383396
-3.4205008
-2.937124
-4.0952412
-3.0875402
-2.737319
-3.8968294
-4.0708235
-1.3539669
-2.1767368
-3.5140842
-3.2215103
-4.1404438
-3.1311333
-2.5462792
-3.6542302
-3.2028028
-3.5191402
-2.7941278
-4.031169
-2.3078214
-2.6873626
-3.4482634
-3.7626494
-3.4331434
-3.0902521
-2.9815792
-2.4144478
-3.3421734
-3.2745237
-2.9524148
-3.3978368
-2.7489526
-3.406926
-4.875341
-3.7015339
-3.076998
-2.6089848
-3.8442895
-3.6024757
-2.5461806
-3.2584558
-3.6289273
-2.2285682
-4.1531877
-3.9824832
-4.0716617
-3.6357688
-3.6135306
-4.3621416
-3.2537929
-2.5594476
-2.8611232
-2.6682385
-2.7746853
-3.6563688
-4.2487558
-3.1868521
-3.4891992
-3.2831088
-3.8569767
-3.5912621
-2.9791029
-3.5643223
-3.3315767
-3.5632949
-4.0677867
-2.6825638
-3.5706027
-3.4761559
-2.8424287
-2.8321821
-2.7495409
-3.6491554
-3.3837831
-2.0536575
-3.7435065
-2.9932377
-3.3821254
-3.4992902
-4.2744015
-4.055735
-2.890155
-3.4636532
-3.2541509
-3.7177273
-2.7849862
-2.8785423
-2.9341885
-3.634529
-4.1128963
-4.5991789
-2.7562025
-3.4080801
-3.1849134
-3.1173037
-3.848926
-3.2375331
-2.4660829
-2.9055113
-4.1106467
-3.1172546
-1.7045229
-3.5703123
-3.1182975
-3.1310109
-3.2404365
-2.8313282
-2.7677142
-1.7263875
-2.3737013
-2.4573686
-3.5496016
-3.5824535
-3.1548045
-1.4265497
-3.9739861
-3.4313572
-4.7535079
-3.8225703
-4.3064149
-2.1478681
-2.1119369
-2.6636771
-3.0708353
-3.7287552
-3.5989939
-3.6628252
-3.6489104
-4.0106869
-3.3979691
-1.9994576
-3.0621944
-3.0783655
-2.1259315
-4.2175252
-2.7235561
-2.0565882
-3.8317081
-4.341899
-3.3284003
-2.2492968
-3.7363274
-2.1565703
-3.4752609
-3.7563842
-2.5587477
-3.8622224
-3.3585223
-2.9969481
-3.2690694
-2.395241
-3.3462361
-2.1467451
-2.6286174
-1.8282299
-3.4591787
-3.8557518
-3.3211286
-3.4339121
-4.1186054
-1.9765057
-4.3296347
-2.6844601
-4.1660236
-3.3347881
-3.7852919
-3.3555032
-2.9093576
-3.330206
-4.5486178
-4.0899174
-2.9649402
-3.5998518
-2.3004904
-2.594563
-3.0996137
-2.2155212
-3.7099123
-4.1408577
-3.9113104
-3.9350628
-3.7204146
-2.9649908
-2.4012312
-3.219239
-2.133143
-2.6915979
-3.9329659
-3.6930819
-3.5899206
-2.0364247
-2.7098528
-4.2150563
-2.177329
-3.2556319
-4.0177366
-4.148377
-3.167349
-3.0612921
-2.2554732
-3.2372313
-4.0871945
-4.0607814
-2.5841731
-3.6483191
-2.7566812
-3.1811543
-3.4341889
-3.1529189
-3.807489
-3.9679484
-2.4106432
-2.9576496
-3.4529808
-2.7204984
-3.5267364
-4.8596817
-3.2631727
-3.979635
-4.6875683
-4.0341985
-3.8337461
-2.6095318
-2.8654218
-4.0183101
-1.921155
-3.9101154
-4.4542416
-2.8837598
-3.6667865
-2.5179631
-4.2101822
-3.7588756
-3.799573
-2.4558087
-2.6360038
-2.5118078
-3.2097544
-3.0006038
-3.8294758
-4.498393
-3.9488599
-4.0522376
-3.8640613
-3.9183286
-4.3599947
-3.3157348
-3.5476811
-3.4977437
-3.9189753
-3.0169164
-2.4588483
-3.3406174
-2.6343904
-4.3423397
-4.016206
-3.3908775
-2.0528621
-2.6458149
-1.7908676
-3.883512
-2.8652243
-3.3619521
-4.7991411
-3.9958456
-3.6491716
-3.6421142
-4.1758902
-3.0462248
-3.8600027
-3.0661464
-2.9000675
-2.2638017
-3.9269467
-2.4235883
-2.6351508
-4.2310977
-3.054865
-1.9659392
-2.815903
-3.9766376
-3.0481552
-2.6919592
-2.6365107
-3.4202311
-3.775129
-2.3522606
-2.4798463
-3.6382467
-3.3021125
-3.5801708
-2.1134403
-3.7153484
-2.6721497
-3.7108112
-3.1378688
-3.6400062
-4.9434949
-3.445773
-4.1241564
-3.6685238
-3.2696454
-1.8695974
-3.8669175
-2.6985637
-3.3479684
-2.9299253
-3.6814473
-4.6220218
-3.4946578
-3.0055655
-2.1742052
-3.5864741
-3.7695423
-2.926591
-0.76408356
-3.8375606
-3.4495295
-3.1318265
-2.1687259
-3.4053161
-3.32276
-4.3605826
-2.7589333
-2.1584464
-1.9895209
-3.5611777
-3.6776362
-2.6831553
-3.872022
-4.3046723
-2.9860874
-4.0499546
-3.0027783
-2.9509717
-2.8711564
-2.3687805
-3.3576811
-2.6901291
-2.8295524
-3.6824503
-3.6210122
-2.6908709
-2.8305486
-2.7486101
-3.7807593
-4.2607906
-2.484542
-1.9053818
-3.5139298
-3.4500451
-3.8493658
-2.1862958
-2.9588585
-3.5744482
-3.7327518
-3.526339
-3.8666137
-2.3776939
-3.0256211
-3.4709148
-3.2234116
-4.6172035
-3.6399553
-3.7452172
-2.4232517
-2.1897621
-3.7151682
-3.7342832
-3.2051354
-4.4972675
-3.575017
-2.8891592
-2.2688229
-2.865434
-3.1866543
-3.0865668
-3.6905473
-3.5065545
-2.40322
-3.2333504
-3.3680257
-4.3476705
-4.5819495
-4.1930313
-3.7160803
-2.7993779
-3.5625114
-3.4042565
-3.381331
-2.3154946
-2.7102652
-1.5345444
-3.9670527
-2.5340843
-3.6268071
-2.194549
-4.4655788
-2.0298673
-3.8556467
-3.4206411
-2.3514464
-3.1280222
-2.9761428
-2.3727537
-2.7149273
-4.3465435
-3.4900791
-3.0153403
-3.306076
-2.8814696
-3.6062021
-3.6526175
-2.6714294
-2.2549959
-3.324063
-3.6283275
-4.0880092
-3.7441427
-3.9909316
-2.8076295
-3.0397674
-4.5412938
-4.2181097
-0.52163711
-3.233067
-3.4236175
-3.6065118
-2.8487674
-3.5539136
-3.3095419
-3.1842823
-2.9260296
-2.1273592
-2.5748339
-4.0554361
-2.4788589
-2.7111436
-3.5641839
-2.2879002
-4.2583927
-3.8620607
-4.968181
-2.7699922
-3.7695019
-3.5378754
-3.3000662
-2.7739786
-2.4420969
-3.5580784
-3.676811
-3.3137271
-2.6102687
-3.2252167
-2.5750317
-3.5077562
-2.5973108
-1.759447
-3.7385878
-3.8753214
-4.0427985
-3.427814
-3.6574475
-4.1388623
-2.7933693
-3.6458196
-3.123543
-2.332177
-2.9339685
-2.6798707
-2.6563231
-2.0640696
-4.3811957
-2.2418683
-2.050693
-3.2739753
-3.7442609
-3.3300502
-3.1037194
-3.1987919
-3.0924439
-2.7504174
-4.2589899
-2.442974
-4.0175027
-4.3742324
-3.3784959
-1.9347768
-3.9518777
-3.0040848
-2.0366178
-4.332706
-3.6601683
-3.0059939
-3.7194693
-3.3059984
-3.6076411
-2.3173648
-4.00045
-4.4763076
-3.4558802
-2.5047991
-3.8708699
-3.4369559
-3.9093341
-3.2745255
-3.5183737
-2.6195616
-4.0215885
0.28782002
-3.3312637
-2.3729799
-3.577893
-3.8237932
-3.3546775
-3.6323508
-3.6873894
-2.4374295
-3.502868
-3.091099
-2.6085322
-2.5326188
-3.0545859
-2.901519
-4.3374728
-2.61233
-3.1852632
-3.9082449
-2.699672
-1.7486184
-3.8656387
0.4108879
-4.2657597
-2.8778719
-3.6183574
-3.15251
-2.1846264
-3.4510288
-2.0345566
-3.3962986
-2.3294409
-3.0045773
-3.2908574
-3.1444065
-4.1037289
-3.090438
-3.1577775
-2.7900595
-2.561339
-3.3130269
-3.8759891
-2.9895624
-3.7839331
-3.5388576
-2.5278455
-2.1869395
-4.3538068
-3.9307535
-3.5792949
-3.8988222
-3.8277122
-4.2386984
-2.8762198
-3.7699737
-3.9740288
-3.6369837
-3.9779502
-4.7646842
-4.4675633
-3.4841048
-3.0256936
-3.0434459
-4.0462745
-4.1812695
-4.694712
-3.5087251
-3.3514132
-2.7935181
-3.1570855
-2.0738231
-2.9411541
-2.1972549
-3.8581633
-2.8236917
-2.5917553
-3.1762783
-2.3248879
-3.2833933
-3.4746324
-3.4841805
-3.8392837
-2.6777374
-2.4597302
-3.7833662
-4.1024385
-3.7679873
-2.8297135
-3.7692608
-5.3301935
-2.6853126
-3.5162736
-3.6553246
-3.4027237
-3.6239311
-3.4357297
-3.6351665
-2.6115947
-3.6512966
-2.6546416
-2.6440028
-3.579084
-3.0871275
-3.2017371
-3.1890648
-3.5009468
-2.8131421
-3.0538733
-2.7311546
-4.2126641
-2.3320544
-3.1480315
-2.198368
-3.0788266
-3.5750365
-2.8037974
-3.0406695
-2.633458
-4.4443583
-2.6375645
-3.4509544
-3.4944841
-2.4010029
-3.7841581
-3.5274208
-1.9262792
-3.6451798
-0.34334118
-2.6609465
-4.7946474
-2.4526054
-2.9347028
-3.6020178
-4.0921334
-3.9935045
-3.6282551
-3.9601651
-3.6993211
-3.5155832
-3.9135511
-3.5878451
-3.3927017
-3.4727953
-3.5966152
-3.2543929
-3.5950093
-3.5507235
-1.9041027
-3.0807643
-3.3501985
-3.1920868
-4.0131851
-3.4039001
-1.9252879
-3.4075372
-3.8050332
-4.1509114
-4.2871972
-4.0181685
-4.0156364
-3.3767508
-2.7780962
-2.3566909
-3.4343967
-2.9497591
-4.0007014
-3.6697254
-2.4008137
-3.3015953
-2.764438
-2.8144955
-2.2657735
-4.0259933
-3.24768
-3.3370718
-2.2789493
-3.5371929
-2.4632832
-3.6932185
-3.857247
-4.045447
-2.4036813
-3.4765177
-3.8386035
-3.5034174
-4.5506986
-3.7484135
-2.5325617
-2.7814274
-1.9158283
-3.3515382
-3.243964
-4.3552804
-3.6163676
-4.3169275
-3.5679092
-3.6625114
-2.1751567
-3.169598
-2.7129389
-3.5113373
-3.7313678
-2.9449449
-2.9665605
-4.6212519
-4.0613342
-2.9269941
-3.3423829
-3.8016232
-3.5140462
-3.8528701
-3.6047352
-3.2664549
-3.2024453
-3.3890134
-3.0257129
-2.2402184
-3.4456033
-2.8967016
-3.0953999
-3.6205805
-3.3626152
-3.866782
-3.2695631
-2.068422
-3.0142197
-4.1576333
-3.4019398
-3.1193446
-3.9856739
-2.1719259
-2.8474767
-3.039296
-2.3710734
-3.2995212
-3.2358068
-2.5671605
-3.5781813
-2.2559639
-3.2046096
-3.1865799
-3.8348272
-3.4219739
-3.4254671
-0.57748816
-2.4445991
-3.9077535
-3.0479449
-3.3525418
-2.8535327
-3.7824588
-4.9747263
-4.5387406
-2.3582803
-2.4900586
-3.4948498
-3.4019719
-3.1686483
-3.3722655
-3.1716652
-3.345969
-3.5950636
-3.8470427
-3.0215197
-3.7898317
-2.1093287
-2.7136931
-2.4360562
-1.0856118
-3.3606454
-3.6207553
-3.4358165
-4.565838
-2.9321141
-4.2144297
-2.8650893
-3.5771401
-2.9391766
-2.2254665
-2.7515441
-3.2895168
-3.5386761
-3.7372131
-2.6651033
-2.8367457
-2.8185457
-2.467859
-3.3405499
-3.3696582
-2.6075368
-4.0277927
-2.6156079
-3.4896441
-2.6001828
-2.1675162
-3.9974656
-3.0264359
-3.4525989
-3.6656755
-4.2186303
-3.4150576
-4.4960851
-3.3874431
-2.230487
-3.647033
-3.9496529
-2.9430186
-2.2590619
-3.3142218
-4.0726889
-2.5428776
-2.6330686
-3.7993602
-4.4987029
-3.1243563
-2.7333209
-3.3074241
-4.3770138
-3.7450614
-3.6396295
-4.6332027
-3.1290358
-3.50185
-3.5287647
-4.208953
-2.9075165
-3.732796
-3.3026994
-3.9486033
-2.1726754
-3.5661463
-3.7065527
-3.7294909
-3.6118539
-3.5259878
-3.4085144
-2.5668362
-0.49383719
-2.7232918
-3.1967665
-2.0407908
-3.0824679
-2.9932085
-3.9731537
-2.8062257
-2.7588221
-2.7448968
-3.5805844
-4.2362123
-3.0879441
-2.9791726
-3.687875
-2.4278798
-3.5082669
-3.3574333
-3.3740033
-4.1889408
-3.1332236
-2.3580581
-3.2846113
-3.7782372
-3.2913366
-3.8008207
-3.6574412
-3.4263489
-4.3958262
-2.8105042
-3.7692477
-3.1532823
-3.814696
-2.0149334
-3.431846
-3.7418898
-3.4275398
-4.0826512
-2.5984041
-2.634461
-2.7028896
-3.5122857
-2.9556423
-3.737143
-3.9217709
-2.7334316
-3.0313053
-3.603353
-2.5903273
-4.0036225
-2.1913454
-3.7783821
-3.1559974
-2.5429327
-3.748587
-4.085933
-2.3281104
-1.2530717
-3.754755
-2.9915145
-5.077032
-2.1801701
-2.8000905
-3.9492257
-2.8992314
-3.163925
-4.1098091
-4.3303364
-3.9836755
-2.2668035
-3.8661691
-2.3364772
-3.3172455
-4.3190655
-2.3305177
-1.6569343
-2.5547808
-2.3611807
-3.5044535
-3.8643825
-2.4107798
-3.4242997
-3.691189
-2.1226052
-3.3304495
-3.8259749
-2.9778458
-3.3398021
-3.2777524
-3.370706
-3.9070353
-2.0014335
-4.0832637
-3.3599483
-2.7343202
-3.0855525
-3.8209303
-3.218599
-3.4691079
-2.657031
-3.0513068
-3.3156309
-2.4000797
-3.1863102
-2.3696901
-2.9526275
-3.4365821
-2.5872926
-4.0188911
-2.1679542
-2.6047999
-2.919354
-4.8690278
-2.0240369
-4.0590424
-3.579284
-3.943739
-3.5644222
-2.4676318
-2.846794
-3.4553488
-2.5341796
-2.6222998
-3.2237771
-4.0882992
-3.3501157
-4.0196019
-3.4053391
-3.8942042
-3.5892511
-3.4031464
-1.8467176
-3.7195225
-3.0054806
-3.0925106
-3.2674718
-2.9337636
-4.0486008
-3.045577
-2.6412266
-3.7206563
-2.9415445
-2.8631196
-1.8843235
-3.3183026
-2.8881187
-3.1705165
-3.9012233
-2.4927283
-3.6508921
-3.0975953
-1.7888242
-3.9978312
-4.5120908
-3.8957104
-2.67797
-4.1259907
-3.4431458
-3.7072034
-3.9353169
-3.225931
-3.1314646
-2.7242976
-3.7180379
-3.1335844
-3.2534004
-2.9773452
-2.2979063
-2.7068906
-3.5749704
-2.9287718
-3.9922906
-3.6080375
-3.4551633
-2.9501161
-2.8297727
-4.5651055
-2.8306927
-3.786785
-2.9539433
-2.8151297
-2.60757
-4.0765934
-2.8282826
-4.2759851
-3.288776
-3.6378163
-3.5095744
-2.8445394
-3.712813
-2.6223736
-2.3553696
-3.6359032
-2.6539609
-3.8661751
-3.0287501
-3.2502472
-3.4204936
-3.3544771
-4.2792812
-2.8441103
-3.597207
-3.9646901
-3.9369225
-2.9387332
-4.0543268
-2.1526843
-2.9866199
-1.925851
-2.2238237
-1.8143048
-2.4574363
-5.1222201
-2.436575
-3.9077976
-4.3558086
-3.4061485
-2.7467833
-2.3957887
-2.1478228
-2.2213312
-2.410461
-4.1606665
-1.9643165
-3.4859178
-3.4446248
-3.3290996
-2.9602408
-2.0595315
-1.8683012
-4.0513453
-3.5978768
-2.752365
-2.5682145
-1.8444502
-3.3776361
-2.7934136
-3.467967
-3.9976785
-2.6627421
-4.1915807
-3.6899204
-2.6900022
-2.6190517
-4.0493594
-3.6583537
-4.133608
-3.9466077
-2.573958
-4.2296326
-2.3322288
-3.8106667
-3.2749898
-0.95335037
-2.8449262
-3.2753435
-2.5521354
-3.8167121
-3.8064673
-3.794213
-4.065234
-3.3887781
-4.2183652
-3.496558
-1.9933013
-3.4385341
-3.1428925
-3.6592716
-4.0534429
-2.1622877
-3.906467
-3.4229126
-2.7681624
-3.2581152
-3.5896461
-3.2191266
-3.3398086
-1.9425681
-2.6729416
-2.7679391
-3.0713581
-3.7832244
-3.0468553
-3.2608782
-3.3864474
-2.909905
-3.6325497
-4.1130002
-2.6367992
-2.4955089
-3.8259746
-3.260208
-1.9932574
-2.7440879
-3.5194527
-3.5307483
-2.2959729
-3.4318008
-3.1220345
-2.6117658
-4.386712
-2.0263035
-3.6058568
-2.3538384
-3.9191063
-3.3925233
-3.1385773
-3.7246161
-0.46502805
-3.7710881
-3.4612561
-4.0136961
-3.8086597
-4.4839624
-3.4600818
-4.108298
-3.4119259
-3.0366692
-2.1404416
-1.2540873
-2.1340976
-3.3423414
-3.8375512
-2.0868448
-2.8921037
-4.4168571
-3.3564042
-3.7527374
-2.4007253
-3.0546002
-3.6937118
-3.2968262
-4.3039216
-2.9665361
-3.0240373
-3.7127036
-2.1778387
-3.9548052
-3.5994683
-3.2140286
-2.9937427
-3.7425371
-4.0259588
-3.3699138
-2.9792753
-3.9765536
-3.1807779
-3.4070975
-2.5168492
-4.4768873
-3.4718804
-4.0091381
-3.1495389
-3.5282355
-3.261013
-2.2497905
-2.7803171
-2.5545403
-2.0032375
-3.5627566
-2.068138
-3.1650459
-4.934481
-0.5568755
-3.3136085
-3.6011537
-3.9389395
-3.5273034
-3.0124133
-3.1117859
-3.3914067
-4.1893624
-2.7995396
-0.076187456
-3.6871064
-3.1502508
-3.6115571
-3.6607614
-2.8729265
-2.660505
-3.3278041
-3.2571767
-3.0355557
-3.37422
-2.9329353
-3.2940642
-3.9643704
-2.1564722
-2.5326366
-2.3669048
-3.2535393
-3.4743948
-3.9089879
-2.9406694
-2.4275381
-3.7188061
-3.8336816
-2.4156419
-3.1897177
-2.8126763
-3.6525809
-3.9130458
-3.0354306
-2.5580505
-3.9795559
-2.7242507
-4.1161747
-4.024692
-3.1200992
-2.490383
-4.0587228
-1.9354752
-3.7431335
-3.2388508
-2.6163208
-3.1702162
-3.8472021
-2.8454194
-3.1346348
0.14990443
-3.9635833
-2.0805248
-3.8103992
-3.3241984
-3.4253812
-4.1982153
-3.4695547
-3.2692792
-4.0436343
-2.0885941
-3.7266429
-2.7183507
-2.3089504
-4.1154249
-4.3436191
-3.2075447
-2.8644036
-3.8889147
-2.483898
-3.1406616
-3.6048492
-3.296658
-2.1298999
-3.3362201
-3.5039341
-3.0879838
-3.6898867
-2.4962501
-2.5873812
-4.5571529
-3.6790158
-3.8474871
-3.0352601
-3.1685751
-3.4893435
-3.4099502
-3.5189464
-4.004216
-3.1639041
-2.5697383
-2.959525
-3.1289781
-3.2622905
-3.1613892
-3.9763544
-2.5897877
-4.4152884
-3.9410841
-3.7160754
-3.8449116
-3.9246611
-3.1209272
-3.4558072
-2.4432669
-3.540172
-4.0265514
-2.8300886
-3.5727482
-3.7757167
-2.4495813
-3.742758
-3.5365331
-2.2361074
-4.8799808
-4.2405172
-3.9413194
-2.2367278
-3.7321191
-4.1236921
-5.0016626
-2.457558
-3.5060216
-3.385065
-2.5855874
-3.5227751
-1.9491077
-3.237602
-3.2483875
-3.300423
-3.5162817
-3.9500028
-4.1098619
-2.2969862
-2.7574319
-3.7572457
-3.3773791
-2.8683575
-4.4283852
-3.3609952
-3.2950481
-2.957061
-3.8287651
-2.7337974
-3.414352
-3.6488917
-2.2582851
-2.8870917
-3.2519807
-3.3257177
-3.2485627
-3.0196011
-2.3778785
-3.7943682
-2.9846984
-3.1647976
-2.7427273
0.95913462
-4.2705207
-3.5224617
-3.8467829
-3.9203635
-2.2565074
-3.4249994
-2.9899117
-2.9957633
-3.9416741
-2.8627927
-3.3762633
-3.8709295
-2.722564
-1.8887517
-2.1773122
-2.870787
-3.6665379
-2.4477013
-3.0490715
-2.4394421
-2.7781012
-2.4667414
-4.2436429
-3.9593349
-3.1210077
-2.2320941
-2.5696673
-3.2732351
-3.4352474
-3.0293128
-3.8898412
-2.2972619
-3.6453517
-3.5391774
-1.8301578
-2.3673062
-3.0058553
-3.6647829
-2.7987322
-3.9392869
-3.6275322
-1.330925
-3.0357965
-2.0194626
-2.8820604
-3.1978832
-3.1855136
-2.4065558
-4.1945026
-4.1435937
-4.2201583
-3.4969062
-4.0217788
-3.5037486
-3.9319332
-3.1472631
-3.2550788
-3.3783814
-3.2428219
-2.132606
-3.7203246
-3.8461039
-4.0335341
-1.729357
-3.7293161
-3.4029523
-4.4035696
-2.8996885
-2.0020364
-3.1440682
-3.7825684
-2.8858769
-3.3060723
-0.82157604
-3.3540238
-3.9866022
-2.8879175
-3.0175053
-3.6821375
-2.8887025
-3.5090861
-3.4923311
-3.0798658
-3.4642056
-4.0246435
-3.8037655
-4.2088449
-3.4698838
-2.4481386
-0.26625741
-3.2650281
-3.5766697
-1.6401147
-2.827989
-3.1500184
-4.253941
-3.1807492
-1.8177538
-2.309566
-3.0419587
-3.5926235
-3.6348434
-2.2336385
-2.5878658
-2.229157
-4.0257426
-3.1426245
-4.5424665
-4.0210579
-2.4142316
-3.2429629
-3.4681563
-4.3886241
-3.3916507
-3.9381365
-2.7478127
-3.0882801
-3.1625544
-2.946385
-4.5027289
-2.1960964
-2.96965
-3.0300162
-3.7888711
-4.3196207
-3.3544416
-2.7220135
-2.6999131
-3.3307066
-3.7584551
-2.6154753
-4.4440304
-4.5014353
-2.8547848
-2.591434
-2.9674662
-1.9748075
-1.9368883
-2.2504697
-2.6628847
-1.9052521
-2.8206119
-2.003711
-4.0293111
-2.4929571
-3.3603218
-4.1882561
-4.3532638
-2.5678449
-3.9026121
-2.8393001
-3.7471052
-3.8323855
-4.5273039
-2.9610303
-4.0636625
-1.7895181
-3.5864513
-3.9849983
-2.9819928
-3.715375
-3.9451276
-3.4646187
-2.4159672
-2.2726675
-3.2177745
-3.0880528
-4.411003
-4.3746033
-3.5720668
-2.4709344
-3.6204644
-1.8641681
-2.6648512
-3.2389466
-3.0889774
-3.4715703
-2.0937927
-3.931903
-1.5120368
-2.5055785
-3.6293796
-4.0278375
-3.7651795
-3.0687759
-1.8523868
-2.8602875
-2.034276
-3.6099506
-3.3580598
-4.0496404
-3.6642467
-3.4712398
-4.0788262
-2.3285471
-3.157382
-2.4703116
-2.5771311
-1.7704153
-3.0031049
-2.5297505
-3.9740446
-3.6127698
-3.0879366
-1.8765619
-3.60976
-3.1874674
-3.8002876
-3.3974402
-3.7373207
-3.7681021
-3.6772402
-2.6646006
-2.5609676
-3.9114983
-3.9141189
-4.2197856
-3.5581693
-2.7648287
-3.6707644
-3.5899207
-3.6135168
-3.9300421
-3.8473475
-4.4306919
-3.6439533
-2.8462455
-1.8745163
-4.1404669
-3.1721972
-3.5858847
-3.1843617
-3.0610019
-2.2297661
-3.2857052
-2.1472575
-3.6253743
-3.8014832
-4.2289539
-3.2093365
-3.5423042
-4.2536969
-3.8541794
-3.8980824
-3.1415176
-2.5801384
-3.7943598
-3.3975824
-3.6091385
-3.4470572
-3.3628646
-2.3981128
-1.7780269
-3.4356498
-4.3138762
-3.7851275
-3.1394051
-3.6061719
-3.0531003
-3.4120751
-3.5520922
-3.1030078
-3.7053614
-2.3778204
-2.9355099
-3.3295691
-3.4695302
-3.0624963
-4.2330204
-2.1111466
-3.1746792
-2.9237023
-3.0536215
-2.9651739
-3.9358227
-3.4172814
-3.4304207
-3.1955159
-3.1743738
-3.8723727
-2.6501125
-3.99365
-3.5004828
-4.01675
-3.9684009
-3.8751601
-3.5400664
-3.5768226
-4.5668324
-3.5248505
-3.0958823
-3.1523882
-2.8281131
-4.1842387
-2.9550948
-2.5779387
-4.3649688
-3.8400979
-3.3559566
-2.1524862
-2.4482778
-2.3464755
-4.1129687
-3.3649548
-3.1881566
-3.4717131
-3.1577851
-3.7405063
-3.624684
-2.8639259
-1.731073
-2.5640576
-2.8959256
-3.3598611
-2.7568411
-4.3033345
-3.8416838
-2.6329911
-4.7903451
-3.1781195
-3.7384183
-2.2200307
-2.8909644
-3.2325676
-3.5323327
-3.5357371
-2.9121105
-3.760589
-3.1953227
-2.6484619
-3.1996205
-3.0518285
-2.3719871
-4.200678
-3.5848653
-3.2193631
-2.2751866
-2.7751118
-0.91654016
-3.2620113
-3.80149
-4.0452384
-2.6086605
-3.9837066
-3.8816605
-2.6218514
-4.4735229
-3.3626612
-3.0909972
-3.7419644
-2.8920422
-4.5390238
-3.2346457
-2.5822924
-1.966013
-2.7200278
-3.6418274
-3.898613
-3.0058172
-3.2632401
-3.5375998
-3.7758217
-2.5173452
-3.6147427
-3.0658052
-2.8726895
-2.0478153
-3.3471395
-1.381897
-3.0708358
-2.1034759
-1.9544416
-2.1221096
-2.4869233
-2.7733876
-2.3536469
-2.2221283
-2.3203192
-1.7064587
-2.1238876
-2.3019018
-2.0718679
-2.2375414
-1.8432173
-1.902142
-2.6701128
-2.2092357
-1.9980551
-1.9063274
-2.3982629
-2.5386368
-2.116395
-1.4876261
-2.0936342
-2.7962335
-1.801182
-2.2956105
-1.9600404
-2.1078569
-2.0795339
-2.0945224
-2.0454926
-0.3572463
-1.9515313
-2.8928022
-1.9201047
0.29861385
-4.1926847
-2.1788058
-3.0174435
-2.5571858
-2.6129216
-2.7319358
-3.0837503
-2.8657269
-2.461099
-2.91718
-2.6290952
-3.1035881
-2.5802364
-2.8460042
-2.5824868
-2.8073736
-2.636022
-2.8748969
-2.6966658
-3.0045068
-2.5046439
-3.5507012
-1.0047247
0.17625732
-2.9864622
-2.4603366
-2.784285
-2.6695155
-2.2970705
-2.8621613
-2.7255203
-2.6564147
-2.9102598
-3.2960071
-2.8956303
-1.157757
-2.7143776
-3.1640238
-2.3529948
-2.1929463
-2.0764411
-2.0971493
-2.9469081
-3.0929699
-2.4211853
-2.2640623
0.98691158
-0.73731973
-0.22009214
-0.6548307
-2.3324629
-0.99731229
0.12680024
-0.42747463
-2.4182902
-2.1944446
-2.1891304
-2.7297819
-2.5150837
-2.1451596
-2.9790092
-1.7237613
-2.2436602
-2.3169562
-1.9856206
-0.1524393
-2.1249936
-2.3391053
-3.9824147
-0.89645084
-2.8344801
-3.3219563
-3.0310068
-1.1353974
-3.0788624
-2.3983531
-2.8543152
-2.2819138
-2.4823922
-2.1484149
-3.4759205
-3.4837391
-3.666059
-3.3076014
-2.4321649
-2.2081513
-2.7509893
-3.6760738
0.43083117
-3.2843341
-2.5286713
-2.95873
-2.8903983
-2.7309433
-2.0812794
-3.2364101
-3.0478627
-2.6227141
-3.1029371
-3.1541145
-3.1644232
-3.6362823
-3.0005043
-2.3187438
-3.0421627
-3.1399286
-3.0786801
-3.1799599
-3.0286066
-2.6459899
-2.80411
-2.5463256
-2.9722318
-2.9531368
-3.1552644
-3.1229178
-2.7845055
-2.8870167
-1.7509508
-2.4122631
-2.193109
-1.7677519
-2.1567934
-2.0760818
-2.1366851
-2.3803006
-2.5895799
-2.2419826
-2.270394
-2.0455054
-2.4954938
-1.1526833
-2.9355246
-2.5374209
-3.0398335
-1.796231
-2.0350355
-1.934197
-2.5280432
-2.2853182
-2.4998507
-3.3373203
-1.8878992
-2.2989771
-2.4451097
-1.9189682
-1.4718494
-2.1241877
-2.19671
-1.9819761
-2.714194
-1.1956916
0.28401108
-2.3786722
-2.4671523
-2.0337617
-2.8876976
-2.0796576
-1.9355396
-2.3005238
-2.1882019
-1.737878
-2.9850127
-2.1784465
-2.7822611
-2.1925366
-2.4296186
-1.6484624
0.73702422
-1.8337167
-2.4450979
-2.3982968
-2.7604362
-2.5813284
-2.7302291
-3.2447522
-2.8537526
-3.0431235
-2.526195
-3.4620207
-2.8910148
-2.8542173
-2.9118871
-3.3051191
-3.0581425
-2.8055844
-3.0748974
-2.9408445
-3.8235085
-2.8897756
-3.0102258
-2.6576451
-3.1718326
-3.6209354
-2.5175982
-3.3944202
-2.7584737
-2.4005896
-2.0074645
-2.7558858
-2.4960553
-2.087721
-2.3529435
-2.0987133
-2.5075942
-2.490469
-2.2986499
-2.1494219
-2.0827794
-3.2857211
-2.2754645
-2.1998497
-2.7886312
-2.1959152
-2.7035086
-3.4077536
-1.5156501
-2.3283877
-2.4489831
-2.3481403
-1.9425599
-2.4126708
-2.0342257
-2.7825042
-2.169579
-2.5394447
-2.5252469
-1.9160653
-0.58994332
0.11614721
-2.7508175
-2.8939993
-2.5517981
-2.3441322
-2.3649271
-2.7618872
-1.8310337
-1.9395312
-2.9617251
-2.9553317
-2.85457
-3.0474612
-3.0638734
-2.9274888
-3.063554
-2.7526731
-2.7592619
-2.223286
-2.6158665
-3.1252179
-2.7078991
-3.5273187
-3.0308653
-3.4030873
-3.0104139
-3.2932293
-3.5143557
-1.9728903
-2.8345862
-3.5024083
-3.3122535
-1.7882477
-3.1222878
-2.8371735
-0.94701733
-3.7964657
1.1057205
-0.21996611
-3.8178453
0.33979101
-2.3141401
-2.1550644
-1.762167
-3.5739908
-2.8102722
-2.4924308
-2.6322363
-2.4270008
-2.7648722
-2.8114296
-2.9632733
-2.6321041
-3.0774617
-2.4056613
-2.4179633
-3.0170227
-2.6885685
-2.587752
-2.3737852
-2.5316431
-2.9016291
-2.3776647
-3.3091026
-2.6375899
-2.7298559
-2.7156213
-2.5878509
-3.1671732
-2.7325102
-2.8964156
-2.6254458
-2.5848767
-2.9587507
-2.914809
-2.3987894
-2.8680073
-2.3988204
-2.2766546
-2.4924579
-0.83909036
-2.6202032
-2.1891576
-2.0310553
-3.135218
-2.8537544
-2.6963349
-3.565497
-3.1775769
-1.7300664
-2.4974372
-2.8362651
-2.5378074
-2.6152845
-2.4736174
-2.6328366
-3.3663543
-2.3748631
-1.4921005
-2.8190927
-2.9853236
-2.8173848
-2.202558
-2.8347293
-2.7495249
-2.9356179
-2.2904115
-2.9894437
-2.7301945
-2.6865037
-2.3809846
-1.3722144
-2.5241768
-3.0057913
-2.5063644
-2.4134686
-2.5576652
-2.776485
-2.7176557
-2.6932901
-2.3089954
-2.6351466
-2.8454969
-2.7229992
-2.2515824
-2.6775406
-2.6972194
-1.1672885
-2.9743333
-2.6410567
-2.17164
-2.3891052
-1.8406458
-2.0078977
-2.4340641
-2.2761287
-2.0217421
-1.2785355
-2.1501829
-2.8101518
-1.2400882
-0.45443517
-3.0624969
-2.4149828
-2.7691221
-2.5871427
-2.5822335
-2.775229
0.054927903
-2.9924863
-3.1247558
-3.2237711
-2.659745
-2.5612185
-0.78629848
-2.7900794
-2.6968479
-3.5725009
-2.8901634
-2.7015059
-2.6354917
-2.501903
-2.3651143
-2.0342243
-3.0683738
-2.5629481
-2.8765074
-2.7974197
-2.6350247
-2.1932693
-2.6744287
-1.946844
-2.8324207
-2.8750821
-2.642055
-2.3275769
-3.6687343
-2.2985185
-2.4799522
-2.0246371
-1.6268876
-2.8341047
-2.7620547
-2.6691821
-2.5731197
-2.7831171
-3.0248128
-2.8793428
-2.6554333
-3.0691616
-2.7039696
-3.2461288
-2.2713076
-3.5797255
-2.2379571
-2.9573559
-2.9073658
-2.1946311
-2.7441409
-2.2522719
-3.3441249
-1.9300427
-2.0870631
-2.9225343
-2.3447793
-2.4015856
-2.8199516
-2.9884418
-2.9805574
-3.132804
-2.9034535
-2.5492364
-2.3990919
-2.7368367
-2.9325496
-2.9159383
-2.9139286
-1.9700886
-1.5533889
-1.8453943
-1.7320328
-1.9222209
-1.2603681
-1.8744614
-2.5010742
-2.0673835
-2.6446779
-1.8540506
-2.8359974
-1.6123125
-2.0039751
-2.0946866
-1.7403818
-1.8688332
-1.878985
-1.5171399
-2.9049241
-1.9199574
-2.3462753
-2.1339089
-2.0799959
-2.772414
-1.6708533
-1.9202342
-1.7960458
-1.903786
-1.8095785
-2.0661305
-1.7699705
-2.2409752
-2.964775
-1.7353988
-2.575327
-1.9338663
-2.1825061
-2.957377
-1.9147645
-2.0080282
-2.6699762
-2.1025137
-0.90016307
-1.8653901
-2.5081862
-1.898425
-2.8470231
0.20732992
-2.6112844
-3.0332848
-2.7187983
-1.9431735
-1.9929715
-1.9173681
-2.039243
-1.9978896
-2.4013252
-2.2999419
-2.3837657
-1.6163635
-2.5790451
-2.9015919
-1.0696441
-0.86963541
0.10843681
-2.4441036
-4.1340751
-2.6466694
-2.8122429
-2.6453818
-2.7228001
-3.4172111
-2.8107653
-2.7325531
-2.9718158
-2.6233037
-2.600881
-2.4875962
-2.5685025
-2.8619544
-2.5376691
-2.8184547
-2.5780444
-2.7901866
-2.7470928
-2.937725
-3.1042014
-2.5369374
-2.9503216
-2.4998448
-3.1577835
-2.6143809
-2.6784063
-2.376142
-2.7504466
-2.8775329
-2.8344317
-2.96438
-2.8966443
-2.4540819
-2.9957997
-2.8987888
-3.2733312
-2.8198361
-2.8574684
-3.0044326
-3.3326231
-3.0850526
-3.0843914
-2.9661771
-2.4991647
-3.1354761
-1.7550365
-2.2498844
-2.0835094
-1.9999319
-2.2823669
-2.2366293
-2.5623754
-1.0071567
-3.4716731
-2.5569333
-2.7171893
-2.5924612
-2.3622832
-2.3263768
-2.2109397
-1.7795147
-1.9576079
-2.1798637
-2.4252289
-1.4765515
-2.0457623
-2.126939
-2.2322149
-2.821202
-2.5460253
-2.0641111
-1.3669797
-2.1707465
0.74914704
0.18218976
-2.9207404
-2.5322016
-2.5844257
-2.7690822
-2.8745453
-3.1137164
-2.8322581
-2.4663576
-2.8057266
-2.751649
-2.5341678
-3.3219375
-2.8773495
-1.8189248
-1.4720165
-1.1780664
-2.5116692
-2.8410196
-2.9985314
-2.7759662
-2.7846546
-2.6340435
-3.1932486
-2.9026454
-3.4347003
-2.8782327
-1.8708003
-3.0271875
-2.5793842
-3.1412645
-2.5117451
-2.9185809
-2.9747671
-2.7198636
-2.9397153
-2.0394449
-2.4266551
-2.5170164
-3.4550115
-3.6646925
-3.1543649
-2.7124479
-2.7141019
-3.0192443
-3.1588646
-2.5490626
-2.718198
-3.3815099
-3.4577822
-3.4706583
-3.2566873
-2.9410504
-2.8138687
-3.3729179
-2.7017764
-3.4857934
-3.1823127
-3.3192954
-2.8380949
-3.4674149
-3.6546557
-3.1609132
-3.4665186
-3.15475
-3.018063
-3.1665327
-2.9925249
-1.5157045
-2.8253611
-3.1266858
-0.416625
1.3937548
-3.4193024
-3.5484404
-0.63576387
-0.64858242
-2.3696139
-2.3579663
-2.947923
-2.399055
-0.79725944
-2.4492113
-1.9931119
-2.2519651
-2.6520477
-2.2561132
-2.4587379
-2.5317588
-2.3915455
-2.4913626
-1.4730427
-2.4575656
-2.3497275
-0.93560068
-0.14696069
0.32940552
1.0344683
0.48715289
-3.5236357
-1.7886137
0.22546051
1.6143748
-0.83104036
0.8228661
-0.97235102
-3.1963999
-1.9229871
-2.9190255
-3.2166791
-2.504261
-3.1023824
-2.9520726
-3.3253836
-2.4039214
-2.4349461
0.53986223
-1.216448
-2.8430709
-2.7080128
-2.9653066
-2.6429976
-2.9841547
-2.4029061
-2.4219128
-2.8267107
-3.4011611
-2.576315
-3.095502
-3.3700554
-3.0665927
-2.838146
-2.4829101
-2.8191186
-2.9147672
-3.2430977
-2.8607635
-2.9036687
-2.3640996
-2.7213683
-2.921904
-3.3882136
-2.6132885
-3.6405118
0.42156215
-2.693864
-2.5225505
-2.8263778
-2.7046388
-2.2133345
-2.5494819
-2.7065743
-1.8079964
0.42708731
-2.1877647
-2.2312656
-2.8476424
-2.5739862
-2.982175
-3.4405708
-3.3916803
-2.6456223
0.023370783
-0.84198448
-0.1710399
-0.17845486
-2.0566221
-1.560284
-3.0096978
-4.5750959
1.3209258
-1.192085
-3.5228869
0.82829781
-3.3114013
-2.6788427
-2.4725066
-2.7246104
-2.8105746
-2.7598543
-2.4267112
-3.7422619
-3.1764679
-3.3492206
-3.2829574
-3.4089145
-2.6138729
-2.5134974
-3.3144493
-4.3333348
-2.164286
-3.5380497
-2.3712765
-2.3259429
-2.4081867
-2.7632132
-2.7070971
-2.6884882
-1.9942036
-1.7952088
-1.9742762
-2.0488546
-2.3107632
-1.8244905
-2.8024881
-2.2372786
-1.7831428
-1.9690014
-2.5139626
-1.6258791
-1.7922091
-2.0886254
-1.8697933
-2.185987
-1.776247
-2.4156675
-1.9722917
-2.4269155
-2.1284289
-2.956662
-1.5471385
-2.3717558
-1.8264866
-3.5408108
0.3154064
-2.1912652
-3.8982434
-2.6643773
-2.4997975
-3.5371857
-2.2688382
-2.1640881
-1.183975
-3.0394942
-2.2640344
-2.1554249
-2.5771693
-1.8702619
-2.6311608
-3.102753
-2.4721276
-2.6352735
-2.9832432
-2.8756124
-2.8205933
-3.0288211
-2.6680302
-2.9136059
-2.5440967
-3.0233588
-2.7735405
-2.8746585
-2.5215773
-2.9740567
-2.3391876
-2.8839889
-3.0943988
-3.1404777
-2.2506566
-2.471974
-3.2747101
-3.3684601
-3.1231912
-3.1506151
-2.8128082
-3.2516567
-3.6505353
-3.2072955
-3.3509168
-2.9844984
-3.0712819
-2.7859786
-2.9805641
-3.2302011
-2.9876525
-2.4983676
-3.2634602
-2.6380165
-3.1749255
-2.8717705
-2.8490196
-3.0613606
-2.7101592
-3.1647432
-2.3182912
-2.4476818
-1.4084936
-2.3212974
-3.1859658
-3.3714181
-2.9266004
-2.7346329
-2.5764824
-3.0317859
-3.4291536
-1.7858217
-2.4145793
-2.7798071
-3.4464575
-2.5091294
-2.6415699
-2.699389
-3.0705327
-3.0975519
-3.2201317
-2.6766797
-3.1814656
-3.0388352
-3.350304
-1.5292923
-2.7062808
-0.58360561
-2.7875022
-3.2236367
-3.3204336
-3.1709273
-2.9211864
-2.9797953
-2.8119992
-2.9852484
-2.9451527
-3.2701277
-3.3961185
-2.2486236
-3.2433163
-3.3089418
-2.8840223
-2.925281
-3.1521825
-2.7810795
-3.1270738
-2.3807711
-3.1165965
-2.8689977
-2.8725884
-3.3633522
-3.2291216
-3.2622335
-3.0423463
-3.2394499
-3.3260262
-2.9302925
-3.5997224
-3.3423484
-2.0333589
-3.0215038
-2.6267313
-1.4908636
-3.4092406
-2.4534825
-2.7111621
1.0642804
-3.1609523
-3.0709363
-2.9933633
-3.0961377
-2.5609186
-2.7453029
-3.0970313
-2.6767762
-3.1784095
-1.3611281
-2.8454459
-2.3699694
-2.6231061
-2.0811751
-2.8598399
-2.6244633
-2.2336592
-2.9615593
-2.3057272
-2.3436278
-2.7968888
-3.0961963
-2.2186697
-2.3953321
-3.5025808
-2.6928758
-2.7619775
-3.1496803
-3.0774297
-3.012892
-2.8166603
-2.8021898
-2.751627
-3.4078995
-3.231262
-2.764992
-3.077426
-0.51186137
-2.3666801
-2.0800294
-2.0604278
-1.6340402
-1.9025794
-2.3031773
-1.7068145
-1.8861605
-2.9032324
-3.0448742
-3.1148408
-2.9613654
-3.0445597
-2.1517998
-2.8363574
-2.9392105
-3.0098781
-3.1456445
-3.2167457
-3.3057702
-2.8853745
-3.3854069
-1.1804897
-3.2583757
-2.9372752
-2.985932
-3.0206001
-1.9891388
-2.3247345
-2.4733802
-2.4246995
-1.9069919
-2.6248272
-3.0675639
-3.0461787
-1.7668007
-2.89598
-3.1135313
-2.9576061
-2.8452348
-2.788433
-2.8647969
-2.8999558
-2.7725607
-3.3466
-3.0094918
-0.64987595
-3.1512909
-3.0814297
-3.12436
-2.6608234
-2.6612385
-2.9038251
-2.8277344
-2.6244452
-2.9019275
-0.57941835
-1.9218029
-1.8228954
-1.8137176
-2.4638392
-1.9125169
-1.7890601
-2.0757682
-1.8506082
-2.1191721
-2.5279492
-2.4108797
-2.5886163
-2.4237347
-2.3601495
-1.0803828
-2.4024125
-2.797476
-1.4650618
-2.3283686
-1.5211679
-1.1728945
-2.0612298
-2.4994193
-2.2885798
-1.7404406
-2.3368625
-1.9935504
-2.1349828
-1.7722209
-1.7870402
-1.8736615
-1.881718
-2.0011466
-1.3390844
-2.548837
-1.4327694
-1.3956918
-3.4190619
-1.8795649
-2.1318319
-1.5148379
-2.7461333
-1.7280985
-1.9973951
-2.3158445
-1.3106305
-1.4606443
-1.1298208
-2.9158113
-2.1908035
-3.0734892
-2.4809943
-2.198571
-1.4343237
-2.0930715
-1.1227085
-2.1661635
-2.5962306
-2.7591035
-3.3757151
-2.3191066
-2.5360864
-2.5897957
-1.5101388
-2.0470568
-2.1065454
-2.9200132
-2.335875
-3.1095101
-3.3154886
-2.4135036
-2.332086
-2.1103817
-2.7582073
-3.157744
-2.9352725
-3.4141579
-2.7268543
-2.6976131
-3.103675
-2.529042
-2.8026286
-4.0905504
-2.0276055
-1.894928
-2.7079212
-1.1320916
-3.0121009
-2.6133877
-3.0998377
-3.2699113
-2.7250301
-2.2536336
-3.0770719
-2.9456966
-2.30145
-1.6208402
-3.0430745
-3.302436
-3.05032
-3.2877505
-2.9484114
-2.8289025
-1.7104829
-0.75912383
-2.708921
-3.0226728
-2.5454875
-3.5234782
-1.1612191
-3.1998016
-2.8608728
-2.1194327
-2.6431029
-2.756941
-3.2392153
-3.0879785
-2.9102084
-2.7322897
-3.1457727
-2.8594241
-3.3246617
-2.6914911
-2.8663017
-3.1839785
-2.4353568
-3.1814746
-3.1904245
-2.1267715
-2.7433403
-3.1232012
-3.0656419
-3.238296
-3.1676141
-3.0899122
-2.7175376
-2.9577856
-3.2417776
-3.1803999
-2.162289
-3.3770386
-3.3997638
-2.6143434
-2.8071074
-3.0993783
-3.0970286
-3.2358467
-3.2575174
-3.3308546
-3.1139575
-3.0150463
-3.1745132
-1.9635458
-3.1863797
-2.9647525
-3.2317345
-3.2683666
-2.0118909
-3.2415485
-1.4155457
-2.7883192
-2.8431414
-3.0690001
-3.1651965
-3.0896888
-3.3812089
-3.065968
-3.1643332
-2.7991606
-2.8379505
-2.277821
-3.3833651
-3.2258683
-3.1971508
-3.2677558
-3.1521568
-3.2759374
-3.1590311
-3.3928212
-1.42998
-2.1353593
-2.6689287
-1.8443221
-2.2700245
-1.9849468
-1.9254294
-2.2591355
-2.4502376
-1.8805842
-2.5749449
-2.7566391
-2.8054783
-2.5975968
-2.4079898
-2.3473628
-2.4503795
-2.7368735
-2.3682559
-2.5846982
-2.5861417
-2.4203077
-1.693903
-2.1732501
-2.1844381
-2.8898441
-1.5464363
-2.9521626
-2.8812147
-2.8529239
-2.8878218
-2.6258
-2.2480326
-2.026435
-2.7714447
-2.9287702
-2.2924852
-2.8044091
-2.5844971
-2.1589712
-2.8651658
-2.3995856
-2.5357942
-3.0316438
-3.216726
-2.2812699
-3.1095942
-2.7429459
-3.0141802
-3.2332881
-3.1626001
-2.0844101
-3.1195957
-2.3707038
-3.2677425
-2.5602377
-3.0438189
-3.2342604
-3.0367626
-2.7461172
-3.1348731
-2.0914347
-2.6331098
-1.4283287
-2.9909073
-2.8971333
-2.9170577
-2.8698553
-2.9523053
-2.914734
-2.5527975
-2.4235589
-2.9844081
-2.4852458
-2.6469279
-2.7228323
-2.3548217
-2.4288835
-2.5770525
-2.7238286
-2.8607495
-3.2137963
-2.479056
-2.6855297
-2.4340919
-2.9621974
-2.4086138
-2.6331147
-2.1090567
-2.6193192
-2.1214771
-2.7425874
-3.0031883
-2.737039
-2.39245
-2.8709903
-2.2548062
-2.8190401
-2.3304655
-2.738527
-2.8486962
-2.5509932
-3.0138668
-2.6024643
-2.3268432
-2.7084236
-2.6359245
-2.6263697
-3.105167
-1.9362569
-2.7307747
-3.1077829
-2.9077241
-2.8090346
-2.8360147
-2.9364885
-0.66164731
-2.6964677
-2.5625571
-2.6596498
-2.6648487
-2.1865751
-3.1901301
-2.9043037
-2.9313075
-2.5677619
-2.8458727
-2.2344549
-2.0092511
-2.637936
-2.8515089
-2.9536865
-2.6451122
-2.8356949
-3.4048125
-2.3462359
-2.945215
-2.0941731
-2.2289471
-2.0137049
-2.2585042
-2.7041853
-2.658862
-2.706218
-2.7233927
-2.4112708
-3.0086471
-2.3163388
-2.1385985
-1.9736486
-2.1778072
-2.9251083
-2.314035
-2.4537556
-1.633461
-1.2717816
-0.6826704
-1.0035141
-0.69170084
-1.2415522
-0.54247574
-1.0220598
-0.52650063
-1.3627593
-0.69271605
-0.81589139
-1.4913122
-1.2408048
-1.0341089
-1.6615415
-1.3619009
-0.45473654
-0.65719023
-1.0336137
-0.51090605
-0.90174934
-1.170417
-0.86050228
-1.1385412
-0.83780822
-0.86538364
-1.4475613
-0.81464545
-1.1065438
-1.1810581
-0.53779261
-1.2709078
-0.9833637
-1.079427
-1.3057181
-0.98075625
-0.74266637
-1.3003189
-0.93022472
-0.58176432
-1.2806236
0.11715958
-1.0866415
-1.0336348
-1.5674803
-1.1129535
-0.49052477
-1.1019728
0.0816025
0.11346769
-0.88907378
-0.96493128
-0.20298755
-0.80925631
-1.4182858
-0.31559719
-1.1412121
-1.1531829
-1.00994
-0.9745039
-1.3552744
-1.1705086
-1.4303741
-0.97965581
-0.71981971
-1.5863407
-1.0499787
-1.5210851
-0.87919252
-1.3745512
-0.47919672
-0.8638517
-0.52361811
-0.61486152
-0.93749511
-0.28044102
-2.957272
-0.79554483
-0.93263997
-0.39240276
-0.68748335
-0.84912763
-0.84581458
-1.5741063
-0.16706992
-1.6612553
-1.1938279
-1.207001
-0.95299595
-1.0540702
-1.0947921
-0.62935256
-1.4414014
-2.110627
-1.1858082
-1.545738
-1.4969889
-1.5820851
-1.3248187
-1.0002507
-0.9678923
-0.81809502
-1.6940381
-1.4776765
-0.77810115
-1.6564391
-1.0704722
-0.96396846
-1.064311
-0.41273768
-0.97075065
-2.0257498
-0.8467669
-1.5610069
-1.3861838
-0.68844088
-1.068699
-1.0435686
-0.65607559
-1.2831968
-1.3486503
-1.2326099
-0.80630721
-1.5466591
0.14240248
-0.67805349
-1.5400448
-0.43115821
-0.77404355
-1.0872947
-1.0378348
-0.56116869
-1.1601245
-0.39481175
-1.4714011
-1.0050721
-0.34905418
-1.6990468
-1.3805004
-1.3993243
-1.3810549
-1.1678477
-1.3317638
-1.2386917
-1.6120316
-0.80943166
-0.69175597
-1.5302393
0.057965839
-1.6589539
-1.1355707
-1.0431205
-1.1483021
-0.82596354
-1.213791
-0.20644929
-1.0441728
-1.7477167
-2.0421348
-2.0599418
-2.3140184
-2.9240079
-2.2017983
-1.9159835
-3.123542
-2.8974131
-2.6697414
-2.3565412
-2.4259391
-2.2016271
-2.8333958
-2.2777111
-3.0291464
-2.2417805
-2.2137229
-3.0127823
-2.4478617
-3.3454119
-2.7373236
-2.9572735
-2.9613543
-2.9387489
-2.7217989
-2.8317277
-0.78891986
-0.75245518
-0.56525482
-2.6907806
-2.646507
-2.7622802
-2.7690826
-2.742998
-2.586256
-2.3142549
-2.5329409
-3.3509053
-2.2455042
-2.4228815
-2.5260274
-3.0874301
-2.6447872
-2.3069708
-2.1798549
-2.7864843
-2.6081032
-2.7995659
-2.5242028
-1.9831133
-0.63649843
-2.6280408
-2.9382676
-2.5847936
-2.4766473
-2.8032069
-2.8415252
-2.7037095
-2.7279696
-2.6746695
-2.2914296
-3.0229273
-2.3834059
-2.325052
-2.8817213
-2.5777243
-2.814563
-2.6538889
-2.8198553
-2.0240133
-2.7327312
-2.9564342
-3.0178076
-2.7403103
-2.9858055
-2.843983
-1.7431364
-1.9952675
-1.5179087
-1.218986
-3.0251003
-2.8151099
-2.7158434
-2.7419743
-2.8402914
-1.5905396
-2.5397503
-2.6072819
-2.9771049
-1.7627101
-0.38146316
-0.68349365
-0.88562719
-1.2607366
-1.2868038
-0.49180301
-1.3009104
-0.57045381
-1.2296582
-0.55044053
-0.6536173
-0.80354267
-1.2979421
-0.68176957
-1.2427417
-0.62731828
-0.7607651
-0.64698601
-0.65568106
-1.2693713
-1.2558107
-0.63398483
-0.87486761
-0.8318553
-1.2068709
-1.3954105
-1.8992385
-2.0494571
-0.96433495
-1.1885191
-1.3053932
-0.36496239
-1.6068745
-0.65887466
-1.3265906
-0.86510566
-1.2148277
-0.61628156
-1.6085748
-1.5396579
-0.58351854
-0.66384165
-0.40360723
-0.80852509
-1.0929002
-1.1901284
-0.59220114
-1.1232705
-1.2353391
-1.774503
-1.2192749
-0.61403104
-2.8683747
-3.3488734
-3.3627367
1.1051638
-1.8342437
-0.22707032
-0.1300055
-0.22266857
-1.5842109
-2.8676269
-2.5064237
-2.5958427
-2.8151952
-2.5687493
-2.7917592
-1.3951184
-1.8714949
-1.8881213
-2.1944443
-1.6362101
-2.06846
-2.2373443
-2.0634253
-1.9197761
-1.4032373
-1.9411131
-4.1304142
-1.4603422
-0.86151278
-4.2583364
-1.8400398
-2.3023994
-1.4149407
-1.4390442
-2.0327094
-2.1266884
-1.4398511
-1.1331919
-1.7038614
-2.133088
-1.570043
-1.8568327
-2.2277959
-2.1082328
-1.7264105
-1.9011809
-2.9753515
-1.5216227
-1.5142117
-2.2842861
-0.34353882
-0.82970507
0.30076018
-1.37243
-2.3465811
-2.4168855
-3.0191395
-1.7714736
-2.2387453
-1.8244996
-2.6896173
-3.7313332
-2.1159579
-3.4476163
-2.2210378
-3.2376381
-1.9375744
-3.7888172
-2.4234367
-3.296925
-2.6273087
-2.1844194
-3.3801244
-2.92221
-2.6076975
-2.4495956
-3.3594896
-2.8672721
-3.6588256
-2.6046245
-2.8780261
-3.700024
-3.4094974
-2.4324601
-3.453325
-2.64546
-3.0062943
-3.1185279
-3.3346464
-3.4817328
-4.1058722
-4.1963809
-4.0797457
-4.339991
-3.849986
-3.0340522
-3.2382921
-2.825922
-3.1641537
-2.5428643
-2.4739896
-2.3779167
-3.4255868
-3.2508228
-3.6261945
-3.3136965
-3.4532635
-3.5285678
-3.1502142
-3.5162141
-3.3640135
-2.2963214
-3.2129424
-2.563925
-3.0401223
-3.5059373
-2.5183422
-2.7199815
-2.0644432
-1.8261229
-2.1501173
-1.9646524
-1.8744927
-2.0800112
-1.9002649
-3.1532958
-1.183988
-1.729394
-2.0374039
-1.3713335
-1.3362897
-1.7633913
-3.4483725
-1.5746265
-2.3245718
-2.2762071
-2.3173131
-3.6885183
-2.3016587
-3.6187003
-2.7871686
-3.7216654
-2.1215737
-3.4192341
-2.0659452
-1.7647066
-1.8883212
-2.0804768
-0.646331
-1.6552625
-1.4031009
-2.4543572
-2.321745
-2.4846405
-2.6531727
-2.7291533
-3.330146
-2.5300723
-2.5797744
-3.4722076
-2.742976
-2.9570648
-3.0065448
-2.63836
-3.9660265
-3.0307387
