-2.1814082
-1.5661258
-1.7429402
-2.9932802
-2.5345096
-1.4810482
-2.3005176
-2.3116038
-2.2672676
-2.2857261
-1.7605895
-1.9224567
-1.9460608
-3.8361573
-2.5328155
-1.9739404
-3.2908875
-3.1562282
-2.6809699
-3.3983068
-2.049291
-3.044811
-2.1004304
-1.700196
-1.8749167
-3.9606595
-2.8633193
-3.2619857
-1.3063794
-2.4578752
-0.42173103
-1.3467619
-1.7487328
-2.1598373
-2.2244663
-2.0192505
-3.381966
-2.2406109
-1.9064297
-3.8526331
-2.5727398
-2.8737203
-2.2562981
-1.9312018
-2.3130153
-2.8876227
-1.9958907
-2.3117917
-2.6293943
-3.0958049
-1.9718769
-2.1571032
-1.7560359
-2.8350787
-2.379914
-3.3289629
-1.5571537
-2.3858521
-1.582364
-2.1689032
-3.1472645
-1.6360144
-1.5553702
-1.8354989
-1.9352953
-2.8818302
-1.6449994
-2.9690448
-2.0554792
-1.4693146
-3.3264761
-1.6105579
-3.4391167
-3.1651775
-2.1348325
-2.7025635
-2.7113817
-1.4184045
-2.5813364
-1.8088067
-2.9328267
-2.6915821
-2.9281132
-3.4466868
-2.5308467
-2.7805333
-2.4856403
-1.8435061
-2.6277078
-2.5429446
-1.8483271
-1.9016556
-2.4296871
-2.5068526
-2.5148984
-2.0765239
-2.3503919
-3.0269142
-2.2990298
-1.9578283
-1.990285
-1.7154576
-2.1061465
-1.5434532
-1.9420583
-1.9388868
-1.4734978
-2.3443642
-1.5184708
-2.4431864
-3.3063534
-1.5099167
-1.7732733
-3.3503212
-3.1905713
-2.2053722
-2.6708137
-3.636682
-1.6805585
-1.6993739
-2.2706336
-3.7113841
-2.4921683
-2.0784632
-3.6925982
-2.1940866
-2.1755669
-1.5827459
-3.0867291
-2.6868103
-3.0458721
-2.3533688
-3.1214238
-1.6911189
-1.8092355
-1.6862645
-3.6878809
-1.682121
-1.1772442
-3.0958547
-1.7199628
-1.6201994
-3.7411429
-1.8631686
-3.6119114
-1.4096099
-2.101375
-2.7321749
-2.3981662
-2.4071401
-3.8507994
-1.5539316
-1.6545188
-1.5180434
-1.8923494
-2.9395851
-2.7438416
-1.4933728
-3.0154955
-1.952506
-2.4463022
-2.9194655
-1.6812826
-3.8621479
-3.2704467
-2.2937983
-1.7571968
-2.2703932
-2.2204545
-2.7712486
-2.7596042
-3.030472
-2.2700834
-3.0387156
-2.6871361
-2.0169664
-2.2372787
-2.0256668
-1.9622686
-2.1770684
-2.1992419
-0.046098595
-3.196409
-1.5800643
-2.2125894
-2.0902248
-1.7692099
-2.7658784
-2.760396
-2.7180751
-2.7807734
-1.8513541
-2.1980909
-2.0087476
-2.4889429
-1.9460905
-2.5961116
-1.8720712
-2.6648143
-2.0908473
-1.72049
-3.6026602
-1.9606541
-2.0937998
-1.8715914
-0.96158976
-1.7935793
-2.1474337
-2.5696004
-1.7115525
-1.7787436
-2.504469
-2.6414774
-1.6565729
-2.2685049
-3.6774009
-3.0632742
-1.7816243
-2.8420004
-1.8508224
-2.0297721
-2.3150623
-1.7665807
-1.1379963
-2.2845623
-1.9500675
-2.862834
-1.922271
-3.1034876
-1.7240395
-2.1455934
-1.9786169
-2.6362668
-1.3935652
-1.9629138
-3.0394024
-1.8278569
-2.6072716
-1.7819305
-2.1908278
-1.6208695
-1.9802612
-1.8526075
-3.131787
-2.8423185
-3.1612888
-1.9620608
-2.5550214
-2.8007014
-2.5624589
-1.8413146
-1.0464645
-1.9003396
-1.8467854
-2.8303749
-2.0992861
-2.3080646
-2.2595618
-3.3341858
-1.8056258
-2.0376631
-2.0391751
-1.9713945
-1.8179795
-3.2657974
-2.3289516
-2.7183696
-3.259651
-2.234742
-2.9127219
-2.3867533
-2.9537191
-2.4936977
-2.4165162
-1.7826774
-3.0300655
-2.7013653
-2.7789486
-1.3050691
-0.014477907
-3.5363246
-1.7948653
-3.0984677
-1.934511
-3.1859088
-2.0692775
-2.0803376
-3.5480933
-2.5066012
-1.2617874
-2.6265529
-2.5965044
-2.2339748
-1.243738
-2.4674919
-2.2132096
-1.6524399
-1.7293219
-2.9288831
-2.9003226
-0.86903582
-1.3914575
-2.9415915
-1.6352663
-2.891645
-3.179696
-1.7577657
-2.794878
-2.5208118
-2.7108816
-2.9665248
-2.3502611
-2.5643256
-2.3349439
-2.6357366
-2.3069939
-2.4897693
-2.1016467
-0.77725314
-2.0815572
-1.8233236
-1.6422203
-2.0833862
-2.4935322
-0.89354904
-2.2139819
-2.2068094
-1.1013153
-2.5234186
-2.8775533
-2.2082938
-2.3995875
-2.1897814
-3.0114549
-1.8049911
-2.5539436
-2.6262076
-2.9593113
-2.2974397
-3.0556165
-1.9044571
-2.2965901
-1.4876902
-2.7715162
-1.7422178
-2.9053439
-2.9687215
-2.2336618
-2.8485332
-3.0171395
-2.7001812
-2.7666434
-2.3747413
-2.4676559
-2.694788
-1.3629952
-0.92836858
-2.5969257
-2.9609058
-2.2634826
-3.1367997
-2.7680668
-2.1759108
-2.0406238
-0.82050008
-2.6573816
-3.2408072
-1.8979394
-2.4171718
-2.5655004
-1.6249272
-2.1924997
-2.4377401
-2.0529501
-2.1075526
-1.4531329
-3.1051453
-3.1190918
-2.7122075
-2.9619698
-1.8250653
-2.5154813
-2.5659317
-2.1886175
-1.8872548
-2.7046349
-2.8755908
-1.8510561
-1.2359634
-2.7096466
-1.8792695
-2.4000518
-3.1538803
-1.6047635
-3.1271744
-2.6502236
-2.3931945
-2.8134964
-2.5233147
-2.2961699
-3.1155255
-1.3020857
-2.7961391
-2.1863209
-1.2136189
-2.5045808
-2.8828299
-2.8857641
-3.096521
-0.84879507
-2.1152548
0.11920601
-2.961535
-2.7970357
-1.5219111
-2.4560132
-2.7746388
-2.7424126
-1.8900388
-1.6161765
-2.2131478
-2.494188
-1.976449
-2.5182663
-3.1955293
-2.73075
-1.6644703
-2.9002335
-2.556673
-2.4269892
-2.4735403
-2.1984503
-2.9486214
-3.2176719
-1.5406546
-1.265114
-1.6409729
-2.8290246
-3.0829505
-2.7022029
-2.324291
-2.2127049
-2.5992395
-0.89488314
-2.5202405
-1.1942315
-1.1053713
-3.0817118
-2.4009326
-2.9742298
-2.5038826
-1.0689419
-1.3320981
-2.5920509
-1.4011816
-2.9173494
-2.7980959
-0.72355781
-0.0367579
-2.8129954
-0.98956341
-3.0537726
-2.9819638
-2.6794538
-2.7138649
-1.3408622
-2.4650017
-2.8098891
-1.7777002
0.77801255
-0.64401415
-2.1660283
-1.2870033
-1.2464144
-0.75333524
-1.1596422
-0.6877932
-0.19411011
-0.7861504
-1.9062109
-2.0440254
-2.2397093
-2.5903968
-3.171356
-2.105069
-2.454803
-2.4787646
-3.487179
-2.0476959
-2.7178773
-3.0676094
-2.5127162
-3.1826072
-2.9962744
-1.9595399
-2.9897701
-2.3696788
-3.3929816
-2.2316013
-1.3549388
-1.9507914
-1.8084877
-2.7797674
-3.1944444
-1.832411
-3.2380672
-2.9400319
-1.6400876
-1.9357969
-2.1053581
-2.3393678
-2.9069616
-1.0742834
-1.7104162
-1.6164627
-1.7625326
-1.8532339
-1.8274101
-2.5791909
-3.2930131
-1.7084039
-1.6292002
-2.3699697
-1.6108859
-1.7770284
-1.9317541
-2.9329538
-2.2104007
-2.788795
-2.2618622
-3.0535624
-2.2548307
-2.9883541
-1.6761096
-1.997478
-2.9065582
-1.8372649
-1.7129023
-2.714081
-2.3435281
-1.3311155
-1.8580292
-2.2038563
-1.6892801
-2.5095686
-1.9773077
-2.1848693
-1.8187444
-2.5056992
-3.6190934
-2.6371738
-1.8920225
-1.734987
-2.4341171
-1.9804288
-2.503726
-2.4782731
-2.089873
-1.7968275
-1.874696
-2.2010415
-3.1742051
-2.1678142
-2.5666199
-2.1390396
-3.1441682
0.11981923
-2.0500193
-2.4984695
-1.570529
-3.4420531
-2.9687906
-1.5366683
-2.7937246
-1.5661977
-2.1278636
-1.6352573
-1.6780848
-1.1417635
-3.2231124
-2.7337365
-2.1169685
-2.8262422
-1.7606293
-2.3017158
-2.7232881
-2.2671084
-3.7259561
-2.3714955
-3.193068
-2.3400768
-1.7270699
-1.8617526
-2.324288
-2.2360251
-2.2300581
-2.0310801
-2.7654266
-1.7374952
-1.6704087
-1.7200481
-2.7020364
-2.4015901
-2.9127193
-2.1689745
-1.8817602
-2.038589
-4.1172356
-2.481475
-2.9192461
-3.4138245
-0.6615224
-2.0329394
-1.9842913
-0.89392824
-3.4234325
-1.7946712
-1.8216865
-1.735583
-2.5403507
-2.2814162
-2.4906269
-1.597522
-2.7711239
-3.0557043
-1.9263749
-3.097379
-1.3446323
-1.7552237
-2.0029171
-1.9524259
-1.7920597
-2.8439457
-1.7805663
-0.47974861
-2.1119168
-2.9407922
-1.5570731
-3.0737651
-1.7816818
-1.7846475
-2.3289285
-1.7747081
-1.7921
-2.6990707
-1.8495794
-3.4845881
-3.20374
-1.7162103
-2.5079325
-2.7442687
-1.5727974
-1.3526271
-1.4012915
-1.7350582
-2.101467
-3.1631535
-2.3553508
-1.9212875
-2.9160098
-1.8229641
-2.9771799
-3.285156
-2.2916912
-1.9016816
-3.0403169
-0.75203973
-1.9445389
-2.7416878
-1.8990264
-1.9589526
-3.0773908
-1.8538446
-3.4423407
-1.8343672
-1.9000359
-2.0299983
-3.2442651
-0.40740913
-3.3889729
-1.7707432
-1.9018881
-2.5328478
-1.6092132
-2.7054336
-2.8882147
-2.5326875
-4.2930662
-2.3334085
-2.73872
-3.4399276
-2.1180342
-2.3022352
-3.4419947
-2.5957905
-1.8945565
-1.8367285
-2.6017785
-2.787582
-3.1260764
-1.7586858
-2.3717299
-1.6374241
-1.560164
-2.2596051
-1.7263217
-2.9538475
-3.4259476
-2.8345089
-3.7754142
-1.8823817
-2.153078
-2.2750265
-1.9300657
-2.5329173
-3.6217325
-2.3337091
-1.3591835
-2.1121768
-1.7388234
-1.9020858
-2.3018268
-1.3712871
-3.6152653
-2.3785444
-3.4022806
-1.8434827
-1.3338339
-1.838957
-4.0148473
-1.9752363
-1.5398122
-1.9602533
-2.5877524
-2.2497237
-1.6454545
-1.7549649
-3.3278092
-2.4116912
-3.3516003
-1.5456437
-2.7882542
-3.0832904
-2.0820417
-3.0223099
-2.577977
-2.0982602
-2.1734424
-1.783136
-2.3179363
-1.7530588
-2.03094
-2.0516654
-1.8235014
-2.1483409
-0.13646413
-2.1857953
-1.8900792
-2.7045062
-2.1252499
-2.0272706
-2.0243006
-2.9570108
-1.1036427
-2.5968285
-2.040887
-2.7932494
-1.9670801
-2.0441381
-3.2002785
-2.4265272
-2.175212
-1.5398369
-3.0917563
-2.1789642
-3.0619617
-1.7745574
-1.5883072
-1.9929103
-1.595125
-1.9262703
-2.061932
-3.6726918
-1.1840734
-1.56305
-2.5150899
-1.649642
-1.8646155
-2.9656669
-2.8351607
-3.1336336
-2.1443129
-1.8422968
-2.5760521
-2.5013458
-2.3888554
-2.1248269
-2.4379027
-3.3181931
-3.3295635
-1.3307449
-1.4552699
-0.83023971
-1.6181363
-3.0293307
-1.9590389
-1.8204888
-1.9329046
-3.2958949
-2.6611514
-1.8791015
-2.2108361
-2.3459725
-2.2527669
-2.0233778
-2.0166824
-2.055162
-1.8037817
-2.5029152
-2.1472293
-1.5212766
-3.1068781
-3.0927265
-1.975748
-2.8281375
-2.3219184
-3.3054698
-2.1299838
-2.9238728
-2.5996782
-1.4306735
-3.9150276
-2.0143073
-1.7909867
-2.0009766
-2.2745768
-1.2606594
-2.8618122
-2.9224191
-2.5739851
-3.5909826
-1.7606786
-2.2630268
-3.5904752
-3.1311695
-1.9062326
-2.6585784
-3.3931719
-2.5372296
-2.3554976
-3.1142204
-1.8834423
-2.1673993
-1.8496158
-1.9395862
-3.3327665
-2.4816495
-0.6273069
-2.6181906
-0.62400069
-1.89084
-2.1470103
-1.4883541
-1.9289649
-1.3198926
-1.9800037
-2.4850402
-2.3005108
-3.2049167
-3.6019008
-2.4480271
-3.8056346
-2.1244553
-1.9963827
-3.1762161
-2.6844707
-2.9183973
-1.8326259
-1.8599615
-2.3141069
-2.2986633
-2.9432257
-2.9847198
-2.0288805
-1.474685
-1.6053365
-1.7855153
-3.0080361
-2.1962513
-2.7428942
-1.9326357
-3.3180449
-2.1180078
-2.2759131
-1.7381312
-2.3106738
-3.0198355
-2.6837945
-1.3779816
-3.6726186
-2.8131668
-3.6597936
-2.3249685
-1.8664677
-2.5079694
-1.7065863
-1.9847036
-1.9110845
-3.1185889
-2.8808749
-1.5230263
-2.2022397
-1.6019806
-3.7668189
-1.7152099
-1.6747548
-2.3196509
-2.8450699
-1.7878591
-1.7636672
-2.3662819
-1.7078826
-2.4545672
-1.8567183
-1.6522255
-2.524402
-2.4591841
-2.3131264
-1.7607557
-2.4746146
-1.7544455
-2.8139958
-2.6752683
-2.1167575
-1.4561956
-2.5721998
-2.2543828
-1.8721854
-2.8641252
-3.5352252
-2.8492473
-1.5383756
-1.4457115
-1.8225588
-2.6005045
-1.6174801
-2.3899025
-2.6253724
-2.6936021
-3.2412574
-3.1961836
-1.7033083
-1.625678
-1.6451654
-2.1089572
-2.8911315
-2.4121033
-3.1007144
-2.3225249
-2.718487
-2.6797092
-1.8938829
-3.6977115
-2.7812199
-3.0771337
-1.8513622
-2.9383175
-2.3168457
-1.9921303
-1.7222023
-1.9128504
-1.6223415
-2.5377375
-1.6340053
-2.580953
-2.579572
-3.4383552
-1.7881162
-2.2610946
-2.9568921
-1.7727266
-1.5405134
-1.3604763
-2.2778891
0.19168951
-2.3924276
-2.6945583
-2.1880087
-2.1642718
-2.3025283
-1.8330848
-1.4538083
-2.4970974
-2.862455
-2.6586544
-2.1536724
-2.6813505
-3.9550662
-1.8899576
-2.3312591
-2.9575469
-1.7421951
-1.8295412
-2.1710978
-1.7235222
-2.1987889
-1.6771245
-2.218423
-3.285724
-2.9528261
-2.2750762
-3.0647225
-1.3480262
-1.0535456
-1.6797845
-1.4539668
-3.2952735
-2.8215692
-3.1554927
-3.1553557
-1.7239059
-1.8237262
-1.6069227
-2.3988533
-1.915055
-3.0089462
-1.789365
-1.8765441
-1.4633147
-2.0487713
-2.6856634
-2.1001992
-2.0865043
-2.9942343
-2.2608817
-3.0510608
-3.100459
-1.918341
-3.7054221
-3.5055835
-0.011926664
-1.7897594
-1.8484186
-2.1816022
-3.3003314
-2.6800839
-1.6365111
-2.2552884
-2.9377205
-1.8494405
-2.203828
-1.4975289
-3.4996276
-1.8728517
0.24766774
-2.582864
-1.8589017
-1.9507857
-2.0504499
-2.3368926
-2.26316
-1.7679843
-2.8878804
-1.9333009
-1.9934827
-2.6615235
-2.7513339
-2.8853888
-1.7538223
-2.7089911
-2.2007734
-2.8482473
-1.2112815
-1.6826356
-1.8174826
-2.4741308
-1.1446645
-2.4689146
-2.3768113
-2.3397867
-2.5112375
-2.4021236
-3.1509573
-2.0797722
-2.0539519
-2.8228255
-3.2531412
-1.9322552
-1.0542252
-1.8623987
-1.7546198
-2.9942156
-2.2569379
-2.4850599
-1.5545066
-1.7797651
-3.4093702
-1.7874118
-2.0131979
-1.2906422
-1.691676
-1.6892941
-3.1108631
-1.519772
-1.3963637
-2.2194158
-1.9734276
-1.6561838
-2.3342996
-2.5547403
-3.3438556
-1.8662007
-1.829253
-1.944334
-3.1079874
-1.997135
-1.374041
-2.106622
-1.9566249
-0.15695602
-1.9806245
-2.7581273
-2.0999582
-1.7236827
-1.7168781
-3.3976366
-2.6296348
-1.9609575
-1.9591795
-3.4202964
-3.6528725
-1.5854165
-3.0301256
-2.1633431
-1.6970383
-3.4809639
-2.990647
-2.6162099
-2.9650843
-3.4703999
-2.5212222
-2.5912086
-2.9320875
-1.9996181
-1.4665109
-2.0735835
-1.7982985
-1.7977217
-1.8870318
-0.065911803
-2.7236185
-2.5676625
-1.8509029
-2.8247749
-1.6886085
-1.9179094
-2.2223876
-2.7026053
-2.58007
-3.2008122
-1.6046892
-2.854985
-3.0332206
-1.5060338
-1.4244344
-1.7163167
-3.1637369
-3.1833426
-1.6527293
-1.8529038
-2.4627638
-2.5710121
-1.6699481
-0.45792466
-3.1277396
-3.2702624
-2.8643614
-0.92440883
-2.2900772
-1.9726519
-2.0980266
-3.5255441
-3.0402218
-1.7433016
-1.997905
-2.2102186
-1.914787
-2.4121099
-2.8028392
-2.353983
-3.3208215
-2.6598418
-3.0500617
-2.6315986
-2.3157507
-3.0625023
-2.2177298
-1.5988224
-1.7402068
-2.4642119
-2.0935285
-1.6552822
-2.7698395
-2.8817085
-3.0474875
-2.9311618
-3.0497414
-2.2296249
-1.3224774
-3.3332719
-2.466609
-1.620275
-2.3355996
-2.0337407
-3.0153748
-1.8270403
-1.7337247
-1.3585933
-3.6765405
-1.5994608
-1.8649259
-0.30861832
-1.6513484
-2.8328524
-2.4741458
-2.7675124
-1.8114886
-2.031104
-3.7209572
-2.0043407
-2.1718488
-2.775031
-2.2937499
-1.9096077
-3.0485413
-1.8016255
-2.0230824
-1.2377517
-3.3938833
-2.086894
-2.5684558
-1.6147646
-0.95904294
-2.2764927
-3.0746435
-1.7397762
-2.5432698
-2.5097085
-1.9622435
-3.2462322
-2.0075463
-2.2668931
-2.2869612
-1.7409839
-4.1394992
-1.9038041
-3.31422
-2.0828586
-1.9055679
-2.3651943
-3.5848807
-2.052873
-3.1960421
-2.9584277
-2.1527558
-1.7439934
-2.1253538
-2.5321373
-3.6001941
-3.258136
-3.5014978
-2.0369301
-1.8229459
-1.6832491
-3.0064552
-1.4490308
-3.5370773
-2.344985
0.55701421
-2.2491865
-2.6608941
-1.984218
-2.8498502
-1.8427267
-1.8593808
-2.2675309
-2.1953339
-2.9176369
-2.6075939
-2.02272
-2.9564004
-2.8513891
-3.1574412
-1.8605414
-2.5881347
-1.860673
-3.2389683
-1.7848389
-1.6642011
-1.8383842
-2.5098976
-3.16726
-2.1859149
-2.4177734
-3.2375646
-2.0125347
-1.7165703
-1.8638773
-2.3168866
-3.6844924
-1.9922429
-2.9214087
-1.5190638
-3.295451
-2.1741944
-3.1588916
-1.536512
-2.8058016
-2.1418045
-3.8156878
-2.9407551
-2.272916
-2.2784912
-1.7594411
-2.3727946
-2.405628
-1.6999131
-1.8519077
-2.2681781
-1.7385913
-1.8469257
-1.5909715
-2.7994951
-3.3885711
-2.9921913
-1.8966871
-1.6036021
-1.629173
-1.5858179
-1.8313374
-1.6564488
-1.9162713
-2.5816936
-1.9516524
-2.9089203
-1.6221977
-2.0753973
-1.3818046
-2.5873587
-2.8266227
-1.5320921
-2.2278392
-0.61842517
-2.2085325
-2.2758576
-1.8872906
-3.4960882
-1.5567195
-1.7060416
-1.7596726
-2.1668452
-1.8525776
-2.2587458
-1.6209918
-1.3725562
-1.5809785
-2.2640915
-2.0891868
-3.3252494
-1.5427673
-1.8382191
-3.4974181
-3.5158975
-1.6138039
-1.7428355
-2.4303011
-2.693478
-2.5226264
-2.349179
-1.8358886
-1.4650503
-2.235273
-2.3457653
-2.1139546
-2.0102804
-3.6524761
-2.0013158
-1.4782577
-3.2721378
-3.4709987
-0.59951152
-1.8331495
-2.5919111
-1.975661
-3.2697689
-1.6395851
-1.6940093
-2.4098674
-2.3738079
-2.2332093
-2.0293596
-3.4976989
-1.6410859
-1.9078359
-2.5651842
-2.6718518
-2.0138225
-2.0210803
-2.1010906
-1.7430744
-2.3066091
-2.2212186
-1.8297306
-1.9326198
-1.4970065
-1.718066
-4.0105707
-2.2915036
-2.0346111
-1.5727707
-3.188921
-2.437067
-1.7997309
-2.0247761
-2.7560831
-1.3270583
-3.3329877
-3.0701262
-2.9094119
-2.4238258
-2.7802028
-3.8172302
-2.0532986
-1.7557018
-1.6360692
-1.687943
-1.7853242
-2.6389675
-3.637028
-3.3359951
-2.6945998
-2.0515441
-2.3862083
-2.0999011
-2.835285
-2.2957115
-2.112816
-2.5455582
-3.6326412
-1.40122
-2.7119519
-2.8963517
-1.8414397
-1.3087269
-1.6708803
-2.525113
-2.4314033
-1.6164316
-2.6243978
-1.9889685
-2.0683939
-2.2414438
-3.9034628
-2.9593072
-1.7995057
-2.2910228
-2.2262359
-2.5954988
-1.8147319
-1.9058661
-2.0181264
-2.6227222
-3.4215487
-4.2849926
-2.0104875
-2.1572954
-1.8065144
-1.9160607
-2.6584256
-1.8577611
-1.7611853
-1.8387131
-2.9273824
-2.0015479
-0.44650557
-2.3659456
-1.8419057
-1.7747247
-2.0082118
-1.9435125
-1.5208866
-1.4854787
-1.808887
-1.672536
-2.7002062
-2.7332348
-2.294576
-0.91194475
-2.4905138
-2.0444647
-4.0151259
-3.0036087
-3.543941
-1.7079332
-1.7645371
-1.8430307
-2.2534287
-2.4342406
-2.4270414
-2.8817291
-2.5272809
-2.9554903
-2.8771419
-1.7824165
-1.846882
-1.7347663
-1.567258
-3.0863318
-1.8413185
-1.5946628
-2.8233778
-2.6701106
-2.0576898
-1.8699355
-3.2553825
-1.7432747
-2.4437781
-2.7053691
-1.7977104
-2.5451601
-2.2349405
-2.0270663
-2.0472292
-1.797379
-2.3218555
-1.7719363
-2.067179
-1.5950754
-2.2619099
-2.614968
-2.1856436
-2.1653372
-3.295202
-1.3702149
-3.1237845
-1.7179104
-3.3978229
-2.1639138
-2.9288068
-2.012037
-1.6985508
-2.391696
-3.1874195
-2.9720631
-1.7246219
-3.2888654
-1.4752175
-1.8352589
-2.1291703
-1.450617
-2.9807247
-3.6304739
-3.2873275
-2.577136
-2.7214771
-1.4600124
-1.8509974
-2.1138492
-1.5236645
-1.717825
-3.4557586
-2.4359179
-2.3301695
-1.6471926
-1.9726932
-3.4020096
-1.3107789
-2.1867645
-3.4471992
-2.8837937
-2.2902785
-1.8397977
-1.7364797
-2.1997092
-3.2612016
-3.0975599
-1.8498621
-2.5965873
-1.7386746
-1.8166104
-1.9509723
-1.885344
-2.4516777
-3.2760872
-0.8997626
-2.073148
-2.5585826
-1.8873803
-2.3326736
-3.2832337
-2.2006371
-3.5343909
-3.6858012
-2.9235531
-3.4150692
-1.7970141
-1.8589129
-2.2411431
-1.0689271
-3.1168041
-3.0377761
-1.6885418
-2.7401266
-1.6306486
-4.2787961
-3.897455
-2.7085405
-1.9197982
-1.3811496
-1.7464934
-2.1188144
-2.0131606
-3.156713
-3.6267852
-2.9508259
-3.0052723
-2.79963
-2.2578955
-4.1194605
-2.05759
-2.4373035
-2.2814505
-2.5492927
-2.0458479
-1.8144394
-2.3560988
-1.6087569
-3.0984899
-2.8846764
-2.1571829
-1.5912279
-1.3146696
-0.82982197
-3.1291112
-2.085082
-1.7180665
-4.0130896
-3.3294731
-2.4606671
-2.6370017
-4.0236105
-1.6887433
-3.0430146
-1.9848218
-2.1188151
-1.5849772
-2.8814693
-1.8885939
-1.6363292
-3.1708509
-1.9987057
-1.5135566
-1.8499403
-2.6579383
-1.6651262
-1.6935916
-2.1741872
-2.0937676
-3.0049048
-1.4111411
-1.7619886
-2.4461539
-2.2013654
-2.3474941
-1.6821088
-2.620097
-1.3457455
-2.4001733
-1.9890387
-3.5616141
-3.4768353
-1.8130749
-3.1651775
-2.5423388
-2.2801796
-0.48906322
-2.5767489
-1.9117064
-2.1728868
-1.6058585
-2.0740962
-3.4413657
-2.3385785
-1.6352593
-1.6894371
-2.3320032
-2.2667483
-1.9346757
-0.18161072
-2.6172145
-2.6528151
-1.8801415
-1.5287862
-2.2681296
-2.335495
-3.0331417
-1.943406
-1.6062694
-1.7313995
-2.0351217
-2.4542629
-2.5362796
-2.3454506
-3.3125911
-2.0675354
-3.1513797
-2.0339158
-2.1214604
-1.7967528
-0.99404043
-2.022683
-1.5544906
-1.8483576
-2.3680549
-2.8474078
-1.8234734
-1.7183162
-1.9814434
-3.4270324
-3.4226653
-1.6782412
-1.6923702
-2.8499575
-2.8400456
-2.8052219
-1.5828277
-1.6698197
-2.9242534
-2.4610626
-2.735913
-3.2009654
-1.7299244
-1.8844789
-2.8784554
-2.1462881
-3.5310083
-2.4812312
-2.5730877
-1.3344208
-1.0594941
-2.5621648
-2.6590441
-2.2656798
-3.497312
-1.9785035
-1.7393602
-1.8354216
-1.4716168
-2.3116183
-2.2083828
-3.0451142
-2.3899023
-1.7995937
-1.9423618
-1.9972762
-3.2662055
-3.0025911
-2.9021883
-2.6616216
-1.9386738
-2.5765669
-2.2205247
-1.9697019
-1.5629731
-1.9287444
-0.91574984
-3.4676028
-1.6560584
-2.4966091
-1.8519623
-3.5395842
-1.6581064
-2.7770445
-2.3298411
-1.845391
-2.0055026
-1.7867544
-1.4685356
-2.0492983
-2.9123318
-2.3865698
-1.8086862
-2.0995139
-1.4548843
-2.3310928
-3.3162063
-1.9714642
-1.7843278
-2.1856408
-2.3675227
-3.1352033
-2.5117871
-3.5041379
-1.8107437
-1.7166643
-3.0628701
-3.1326364
0.011445412
-2.0441318
-2.3363434
-2.3848503
-2.9344772
-2.3648211
-2.270266
-1.8782228
-1.6336417
-1.5197382
-1.6331358
-3.0516382
-1.3218186
-1.4174656
-2.5176535
-1.5745309
-3.470602
-3.4556689
-3.8637757
-1.6563506
-3.2746628
-2.2883933
-2.254895
-1.8121345
-1.3489779
-2.3157968
-2.3328539
-2.2670315
-1.8388952
-2.776106
-1.5009551
-2.5660029
-1.9656136
-1.4329322
-3.0598393
-3.4478831
-2.9966474
-2.382414
-2.7973221
-2.9897655
-1.8870363
-3.5439829
-1.8104985
-1.5755243
-1.8884597
-1.4478554
-1.762482
-1.5497278
-3.3923709
-1.5698896
-1.5125923
-2.1677175
-2.5988386
-2.3231175
-1.6991778
-2.700918
-2.4674473
-1.7213895
-3.7499115
-1.7721316
-2.9898169
-2.8982214
-2.0568308
-1.5713773
-3.5780918
-1.7545406
-1.5451129
-3.443873
-2.659017
-2.0546687
-2.501447
-2.2425886
-2.3809375
-1.6545416
-2.7168801
-2.8633198
-2.3997512
-1.9304889
-2.5982948
-3.0697078
-2.7712299
-2.5791295
-2.6587379
-1.8329692
-3.642157
0.78801658
-2.4695011
-1.7134528
-2.5850417
-3.356167
-2.3085219
-2.68968
-2.5476402
-1.8782416
-2.208849
-1.7373343
-1.7344615
-1.9532583
-1.8662606
-1.8809712
-2.9276979
-1.8030652
-1.9675917
-2.7986882
-1.7534673
-1.4795875
-2.5821681
0.10932897
-2.9186217
-1.7069056
-2.1026805
-1.8762234
-1.5652296
-2.516462
-1.6642247
-2.4412309
-1.5672003
-2.1665403
-2.3252333
-2.0394814
-3.0142598
-1.9747617
-2.0766201
-1.8094574
-1.7924083
-2.446351
-3.2416531
-1.8849765
-3.2592034
-2.7445632
-1.8190126
-1.4515426
-3.5498585
-2.734194
-3.0088019
-3.1374166
-2.7285371
-3.0812331
-1.888745
-2.9041939
-2.4082819
-2.863025
-3.5427242
-3.7541135
-3.9063773
-2.4315656
-1.9197746
-1.954602
-3.2087319
-3.6067898
-3.0089818
-2.1942955
-2.2780853
-1.6522726
-2.1234715
-1.5975065
-1.9866853
-1.6579968
-3.2463589
-1.9694751
-2.4864957
-1.8919139
-1.7740224
-2.2753755
-2.1670859
-3.1115383
-3.3146804
-1.58746
-1.6891327
-2.4892605
-3.2216279
-2.6103515
-1.9621054
-2.6573957
-4.7822402
-1.5688914
-2.2595428
-3.0391732
-2.2845406
-2.9522686
-2.940386
-2.6740737
-1.9421734
-2.6611758
-1.7024616
-1.3757885
-2.5072847
-2.2598814
-1.8774468
-1.8167262
-2.3862973
-1.8456926
-1.7933099
-1.9687221
-2.7644958
-1.7192988
-2.0243684
-1.6380403
-1.819952
-2.6390865
-1.9668512
-2.1624594
-1.9816952
-3.5313948
-1.9929159
-2.1683132
-2.4228806
-1.6712765
-2.7786569
-3.5707804
-1.5391181
-2.8228196
-0.2742102
-1.9587894
-3.8947155
-1.7393632
-1.9479307
-2.5213087
-3.0443069
-3.5350864
-2.6008236
-2.8822607
-2.8557827
-2.7452947
-2.9035374
-3.5163133
-1.8310729
-2.5503888
-2.6088489
-2.4487493
-2.1359159
-2.2475389
-0.67408344
-2.1125591
-2.2563701
-2.1101788
-2.5259301
-2.2919423
-1.6939065
-2.2574769
-3.1241906
-2.5671754
-2.8132921
-2.5815504
-2.8447501
-2.7965179
-1.8828807
-1.8836282
-1.9387123
-1.8411476
-2.7237042
-3.1770126
-1.6934774
-1.6899709
-1.6240762
-2.1028561
-1.6639052
-3.0539755
-2.0391364
-2.2732285
-1.5977453
-2.2109445
-1.6154743
-2.5641333
-2.748969
-3.1327834
-1.8392344
-2.5372017
-3.126495
-2.5716691
-3.4662287
-3.1066693
-0.62479294
-1.920441
-1.5424969
-2.1176247
-2.0702733
-3.953282
-3.2067761
-3.4508091
-2.3926834
-2.8530451
-0.68982551
-2.0899363
-2.2706057
-2.320721
-2.6264984
-1.8311595
-1.9646855
-4.3134342
-2.7768986
-1.8129912
-2.4086261
-3.497093
-2.9675507
-3.2930963
-2.20383
-2.1247456
-2.3867432
-2.6536453
-2.183464
-1.6204477
-2.2535646
-1.750947
-1.8922841
-2.7738394
-2.1722228
-2.9652736
-2.3000968
-1.6234508
-2.0244946
-3.370609
-2.0492222
-1.9897805
-3.2703389
-1.8025047
-2.0126066
-1.9148329
-1.7377949
-1.7548185
-2.1830092
-1.7616294
-2.6238369
-1.4536294
-2.0284951
-2.0203942
-2.8896843
-2.5584245
-2.4613841
-0.30868529
-1.8031766
-2.8017517
-1.9470052
-2.2902265
-2.1358967
-2.8994678
-4.1641176
-3.7842005
-1.7523852
-1.73814
-2.3239987
-2.0665458
-1.9579252
-2.2518889
-1.8195702
-2.2058795
-2.2132544
-2.3719621
-1.7660513
-2.5059032
-1.6621249
-1.7551996
-1.7838154
-2.5826517
-2.0552943
-3.0641726
-2.8456233
-2.7925254
-2.0106086
-3.3425201
-1.9281085
-2.3480141
-2.1980584
-1.6280704
-1.5016103
-2.3232864
-2.3414372
-3.1968568
-1.6867451
-1.6262174
-1.6822032
-1.6063391
-1.9951837
-2.2762801
-1.7431378
-3.0530256
-1.8753929
-2.408471
-1.6571149
-1.6320599
-3.2568267
-1.7418683
-2.0483835
-3.0608374
-2.7657161
-2.2288865
-4.1879742
-2.3873393
-1.7490979
-2.9648595
-3.4896251
-1.6769428
-1.7010596
-2.0958274
-3.3563628
-1.5609919
-1.9327073
-3.214669
-2.9869712
-2.4664954
-1.4881749
-1.9491152
-2.8134669
-2.4944556
-2.3360028
-3.1327984
-2.0445982
-2.2532555
-2.8383078
-3.1896534
-1.7526585
-2.5073753
-1.8492363
-2.3773011
-1.7805222
-2.1781356
-2.3999401
-2.6493617
-2.3580398
-2.1456193
-2.4150709
-1.5108983
0.072404818
-1.8049916
-1.6483284
-1.5893822
-1.5797186
-1.8800108
-2.6634872
-1.9240833
-1.8097644
-1.6531768
-2.4152372
-3.6010218
-2.3169423
-1.8578985
-2.769336
-1.621137
-2.4353035
-2.2789229
-2.4771402
-4.3007973
-1.9346051
-1.154292
-2.1171913
-3.1598461
-2.0958072
-3.2209476
-2.2547991
-2.3938043
-3.9059596
-1.9671575
-3.0837404
-1.9119134
-2.5017296
-1.6961268
-1.957787
-2.5684384
-2.0035232
-2.9039453
-1.6736321
-1.6652852
-1.6245495
-2.9083951
-1.8321418
-2.2007104
-2.7819418
-1.9086835
-2.2412357
-2.8911477
-1.6020014
-3.049933
-1.9921369
-2.9869813
-2.1793739
-1.8050978
-2.4991389
-3.4090589
-1.6156714
-0.52638419
-3.3462869
-1.7427709
-4.3182561
-1.5628888
-1.897281
-2.8643959
-2.0145126
-1.3784786
-3.1165081
-3.0048608
-3.3015556
-1.4323785
-2.7303263
-1.8774226
-2.0974953
-3.3774121
-1.7800161
-1.3852175
-1.6096421
-1.7432794
-2.4149037
-3.1828038
-1.7017499
-2.4255155
-3.0796403
-1.5603739
-2.0762288
-3.0650117
-2.0633159
-2.410555
-2.2653937
-1.8419904
-3.0067772
-1.1227393
-3.2477606
-2.4662136
-1.7727343
-2.1024802
-2.900263
-2.173133
-2.8667945
-1.8232772
-2.0531744
-2.1100088
-1.5712607
-1.8034791
-2.2683883
-1.8111917
-2.3445502
-1.9416779
-2.8214546
-1.6477773
-1.7373617
-1.7798243
-3.6078904
-1.475568
-3.4814977
-2.3642862
-2.9375066
-2.6525231
-1.4474918
-1.9135167
-2.2799234
-1.8023083
-1.6005001
-1.8039103
-2.9036323
-2.1065933
-2.6696059
-1.9511479
-2.6775591
-2.3357816
-2.5738829
-0.76094939
-2.5813139
-2.1175876
-1.9035695
-2.0978013
-1.911433
-3.2567308
-2.0508599
-1.7217889
-2.7627443
-1.8088671
-1.7838295
-1.4698933
-2.3312108
-1.7748876
-2.5489769
-2.8014749
-1.5006028
-2.8316466
-2.1021811
-1.5742238
-3.1672756
-3.6175638
-2.5987423
-2.0389219
-3.048254
-2.2136
-2.9499948
-2.7798532
-2.3136113
-2.1511411
-2.0460816
-2.4496569
-2.1288889
-1.9913376
-2.7015729
-0.97263654
-1.7768419
-2.2179988
-1.5229071
-3.217252
-2.6010649
-2.2936841
-2.0319641
-1.9050084
-2.7773968
-1.7485295
-3.1137695
-1.8491943
-1.8304834
-1.4886505
-3.2458504
-1.6532415
-2.9249316
-1.9032713
-2.4049898
-2.2455791
-1.7835455
-2.3931544
-1.913912
-1.5920837
-2.0243669
-1.24949
-2.5694602
-1.8706955
-2.24371
-2.1442227
-2.0146081
-2.9118112
-1.8024182
-3.0203548
-2.5613067
-3.2711412
-2.0657053
-2.6456256
-1.6120411
-1.9976589
-1.6697038
-1.2021043
-1.0871549
-1.7200257
-3.5175835
-1.7252311
-2.557316
-3.2295142
-2.3954858
-1.8154536
-1.6244384
-1.6475159
-1.6208361
-1.8430572
-3.228747
-1.5679613
-2.3503991
-2.0926155
-2.4218624
-1.6265278
-1.5332498
-1.6851204
-3.0141851
-2.4537306
-2.1093811
-1.7078945
-1.4263065
-2.393488
-1.7820238
-2.2486505
-2.6957355
-1.6632735
-3.0015297
-2.4607495
-1.2382586
-1.6845071
-3.574151
-2.8503121
-3.0541924
-2.7302052
-1.7005503
-3.0987745
-1.6660511
-2.9098532
-2.1432155
0.14946933
-1.8901459
-2.2268717
-0.92845263
-3.436685
-2.8484137
-2.8042514
-2.6373272
-2.5723482
-2.6084168
-2.5348886
-1.2943365
-1.9153041
-1.9918064
-2.7583878
-2.8784379
-1.7441743
-2.9660144
-2.4118377
-1.7939193
-1.9045365
-2.783887
-1.931654
-2.7513925
-1.7129792
-1.5690941
-1.6252044
-1.8954471
-2.7079987
-1.9819162
-1.8711122
-2.4661044
-2.0101694
-2.8020244
-2.8314023
-1.7630244
-1.7273805
-3.3450441
-2.0598212
-1.0895683
-1.9142297
-2.3329411
-2.2786768
-1.630261
-1.9750864
-1.5338536
-1.7882196
-3.3341986
-1.3018675
-3.1527798
-1.4829056
-3.1070641
-2.7962267
-2.0290676
-3.3584809
0.37276514
-2.8832819
-2.0547169
-2.8898888
-3.0175258
-3.3995746
-2.4981382
-3.4463508
-2.5782181
-1.7241731
-1.7479337
-1.1378968
-1.7105061
-2.3481163
-2.649532
-1.6078444
-1.7556213
-3.7969199
-2.2345183
-2.1727795
-1.6283056
-1.9579328
-2.7430651
-1.884865
-3.269343
-1.9290331
-1.68855
-2.6856194
-1.4691339
-3.3811556
-2.2057536
-1.8898901
-1.8623435
-3.0764555
-2.7754194
-1.9955835
-1.7039718
-3.126077
-2.1189433
-2.4979414
-1.8365572
-3.3552321
-2.3283286
-2.8931622
-2.0186793
-2.5123338
-1.9050926
-1.3859628
-1.8466829
-1.6996388
-1.556882
-2.8522886
-1.7465755
-1.7292483
-4.0097585
-0.23532047
-2.2062545
-2.4295988
-3.3091121
-2.335555
-1.8919495
-2.6183866
-2.5766789
-3.7415606
-1.6885104
0.84742383
-2.3588657
-2.0114551
-2.5371679
-2.3824732
-1.7969852
-1.5134238
-1.9242958
-2.2128424
-2.0248385
-2.1939276
-1.8725583
-1.9255393
-2.7768777
-1.8485861
-1.7950692
-1.6222986
-2.1689435
-2.8629175
-2.6986279
-1.3300067
-1.638079
-2.7405475
-3.0428617
-1.586714
-1.9635072
-1.7683482
-2.9650715
-2.9817485
-1.8700071
-1.2029168
-3.4585817
-1.7124814
-3.8282506
-2.8406274
-1.9480426
-1.6446787
-3.0168523
-1.5922955
-2.6215267
-1.851791
-1.7726025
-1.826458
-2.6927804
-1.823011
-2.3831759
0.98284147
-2.5401877
-1.5027751
-2.472035
-2.4134484
-2.0576434
-2.8601878
-2.2096099
-2.0783869
-2.7466026
-1.6352835
-2.3897407
-1.9902753
-1.6911198
-3.0552282
-3.4276733
-1.7790642
-1.5606486
-3.1490612
-1.7080985
-2.536243
-2.7257514
-2.0613956
-1.8072763
-2.2364203
-2.753948
-1.6427053
-3.1310564
-1.7529649
-1.4634761
-3.0247484
-3.0425164
-2.4791225
-1.8764216
-2.1895904
-2.3111138
-2.3888877
-2.4220811
-2.968951
-2.062778
-1.7085512
-1.849717
-2.1764801
-2.3210968
-2.1064373
-3.4976136
-1.6583885
-3.2755974
-2.787818
-2.9752928
-2.7611719
-2.9927467
-2.194203
-1.947075
-1.722651
-2.8171633
-3.2948412
-1.9481092
-2.1712303
-3.2671044
-1.6905758
-2.5051655
-2.2956196
-1.8392471
-4.0282614
-2.8587695
-3.159873
-1.7422044
-2.5558173
-3.3060666
-3.7099365
-1.733262
-2.9902293
-2.1481031
-1.6391584
-2.2768513
-1.5829153
-2.163374
-2.0915458
-1.7950655
-2.3266731
-3.2289364
-2.9059493
-1.6306052
-1.7674906
-2.7921898
-2.1111155
-2.0169746
-3.6061605
-2.2289983
-2.4694935
-1.7962437
-2.7594559
-1.9351061
-2.0074287
-2.5300907
-1.8399363
-1.8188304
-2.302356
-2.1025173
-2.5451579
-1.5802521
-1.9078693
-2.4467886
-1.8168312
-2.4865803
-1.7777431
1.4357075
-3.1917805
-2.4991941
-2.7094015
-2.3694407
-1.6780048
-2.1472189
-1.9360132
-1.8835342
-2.9188015
-2.0057195
-2.8575212
-3.5072798
-1.972587
-1.378542
-1.6721529
-2.061559
-2.7811395
-1.6142329
-1.7183151
-1.9201598
-1.8185613
-1.7156435
-3.5268516
-2.8332248
-2.0719118
-1.4228935
-1.5654197
-1.7092846
-2.2324404
-1.7300351
-3.2769606
-1.7998555
-3.6782404
-2.3499981
-0.61109399
-1.4602222
-1.9586335
-2.4897304
-1.9270604
-2.4076302
-2.6646045
-0.85115526
-2.1896222
-1.6300712
-1.8428344
-2.0989914
-1.8526717
-1.5666742
-3.543628
-3.034974
-3.1861813
-2.2024503
-3.3972976
-2.8105942
-2.7748848
-2.1251141
-2.0178962
-1.5987118
-0.99396911
-1.5865081
-2.5742411
-3.2414111
-2.7723579
-1.294528
-2.7057784
-2.5983115
-2.8121017
-1.8636863
-1.4124574
-1.7258548
-3.0748043
-1.9251648
-1.8538863
-0.26978089
-2.0946108
-2.8085853
-1.9726981
-2.1726182
-2.3714707
-1.7660577
-2.272649
-2.8448218
-1.8967
-2.2725316
-2.8257696
-2.3555011
-3.0190177
-2.130842
-1.4741481
-0.22432562
-2.6852631
-2.3661376
-0.42006388
-2.1196781
-1.7908089
-3.2063585
-2.3242091
-1.3983714
-1.8578923
-1.8530578
-3.1404503
-2.7333922
-1.4800214
-1.4399312
-1.7356755
-3.6208057
-2.1412019
-3.1082563
-3.0751277
-1.5885531
-2.1213224
-2.4311802
-3.7427291
-2.3383843
-3.0871652
-1.6045991
-1.8426629
-1.7479315
-1.5093363
-3.0755036
-1.7494689
-1.528499
-2.7392213
-2.4472144
-3.3444914
-2.102082
-1.8670148
-1.1301465
-2.2912462
-3.2089687
-1.8589335
-3.5209286
-3.5842282
-1.8347058
-1.8282143
-1.7920147
-1.5559245
-1.5758659
-1.378503
-1.7395759
-1.069373
-1.6621447
-1.6413437
-2.8789672
-1.7052429
-1.7167458
-3.5342653
-3.2907422
-1.7421173
-2.8684063
-2.0448874
-2.5625927
-2.7748736
-3.0706207
-1.9985014
-2.9873349
-1.4394416
-2.4467038
-3.6313942
-2.2491172
-3.2565734
-2.5998138
-2.2323066
-1.8075858
-1.7902938
-2.0105258
-1.756472
-3.6128399
-3.0977444
-2.4022713
-1.6202175
-2.5265757
-1.6156471
-2.0791405
-1.8316737
-2.0583776
-2.5630884
-1.7846037
-3.393273
-0.57234134
-1.7974308
-2.4891883
-2.8784473
-2.4905543
-1.8946874
-1.4547099
-1.6702766
-2.639017
-2.0791686
-2.285423
-3.0581633
-2.3974942
-2.1218506
-3.3479213
-1.1757259
-1.9487277
-1.8498665
-1.5759983
-1.1892231
-1.8491338
-1.6595149
-3.1363896
-2.3951392
-2.1516282
-0.75338696
-2.7327966
-1.8703118
-2.9641404
-2.6003331
-3.3239045
-3.4152067
-2.6319062
-1.549323
-1.7564985
-3.4999202
-3.0388767
-3.619783
-2.1492604
-1.9262873
-3.1652434
-2.6841018
-2.5476875
-3.0730978
-2.5031527
-3.4112748
-2.3591481
-1.8213249
-1.6947463
-2.7561274
-1.6707796
-2.3324777
-2.0008423
-1.7728099
-1.5252498
-2.4276223
-1.6003886
-2.5588088
-3.1162962
-2.8103669
-2.5309594
-2.349272
-3.0791779
-3.1736382
-2.6133431
-1.950589
-1.821421
-2.8824328
-2.2452169
-3.4519365
-2.2377237
-2.3913392
-1.6063044
-0.76627477
-2.1127205
-3.2529424
-2.6310284
-2.2122273
-2.4821829
-1.8729463
-2.5266757
-2.5175077
-2.0119281
-2.5719891
-1.9653839
-1.9652806
-2.2717261
-3.0026661
-2.1005372
-2.5132575
-1.6166091
-2.1594769
-2.100268
-1.9637568
-2.2388209
-2.3509864
-2.4287162
-2.8040375
-2.0199521
-2.2793635
-3.1412452
-1.8436096
-2.9188522
-2.6985604
-3.3624788
-2.5240284
-2.4952469
-2.987315
-3.1466332
-3.3527821
-2.5482218
-2.0557812
-1.7058488
-1.7241612
-3.5970313
-1.7965231
-1.8814676
-3.1067816
-2.5267036
-2.1007057
-1.8076562
-1.6138619
-1.3507833
-2.9047383
-2.2942678
-2.1186199
-2.1875706
-2.0438608
-3.0220467
-3.2142273
-1.7782607
-1.542747
-1.8224874
-1.7613638
-2.3682129
-1.7197782
-4.3762209
-3.3196588
-1.6549053
-3.6842631
-1.8406418
-2.694111
-1.5691303
-1.6511449
-2.0577815
-2.5559355
-2.5184445
-1.8335815
-2.8485718
-2.1405897
-1.570707
-2.0426476
-2.0925455
-1.802683
-3.7553666
-2.4341497
-3.5809343
-1.7710335
-1.9872335
-0.86131013
-2.3371835
-2.3878006
-3.4671614
-1.4385022
-3.5758084
-3.0979516
-1.2886894
-3.5431038
-2.2289027
-2.03489
-3.3453111
-1.9904997
-3.9783554
-1.8040816
-1.5387715
-1.5749436
-1.7536356
-2.2279607
-2.7960492
-1.944039
-2.5001713
-2.4368635
-3.1761502
-1.3445367
-2.6393015
-1.8495955
-1.9560997
-1.4429054
-2.3223131
-0.62100884
-1.7634529
-1.711355
-2.0928834
-2.1455268
-2.2138245
-2.5496925
-2.3550055
-2.2634282
-2.6464285
-2.0312056
-2.2912076
-2.2139089
-1.9958795
-2.0605869
-2.1414842
-2.0623971
-2.3300227
-2.3400551
-2.2282048
-2.1719146
-2.1792798
-2.2582506
-2.0697608
-1.8794166
-2.0709794
-2.5061777
-2.0720995
-1.9500191
-2.272636
-2.3371397
-2.1668626
-2.340336
-2.1095239
-0.31347602
-2.0816003
-2.9227253
-1.6238479
0.1967099
-4.5121316
-2.4468952
-2.2597759
-2.5372758
-2.66588
-2.8624853
-2.8371516
-2.7332751
-2.3132293
-2.7169508
-2.7296319
-2.8726045
-2.5263021
-2.5248065
-2.6173746
-2.695686
-2.7599146
-2.7381799
-2.5899232
-2.6415925
-2.5667424
-3.2275359
-0.74578656
0.14279659
-2.6720714
-2.3872084
-2.7178936
-2.4306192
-2.3589041
-2.6897367
-2.5852691
-1.8587253
-2.6070255
-3.003903
-2.7895921
-1.3448964
-2.0639941
-2.9712675
-2.3071064
-2.0950114
-1.9190086
-2.3961817
-2.5841135
-3.0788916
-2.5750115
-1.7167491
1.0746681
-0.74005754
-1.3923474
-0.63952926
-2.5086799
-1.0593008
0.12396474
-0.34878098
-2.1642561
-2.1064088
-2.3258379
-2.8571422
-2.5903407
-1.8985565
-2.7226193
-1.7145487
-2.125388
-1.9794273
-2.227308
0.064191542
-2.191866
-2.2470199
-3.4138662
-2.3277823
-2.6562298
-3.094526
-2.9893954
-1.0085924
-2.8987049
-2.205949
-2.2146026
-2.0753456
-2.4816549
-1.9710005
-3.0708933
-3.4314884
-3.3098273
-3.1237908
-2.3740977
-1.7460561
-2.5183133
-3.5645137
0.36635821
-3.2313005
-1.9858705
-3.1326882
-2.6431839
-2.636931
-2.0519637
-3.0377457
-2.9286751
-2.9927088
-3.0444682
-2.9228126
-3.0740712
-3.4596177
-2.7759743
-2.2390873
-2.7380708
-3.2340578
-2.9034601
-3.0056606
-2.9374771
-2.4572342
-2.6093952
-2.4479523
-2.9692284
-2.8344982
-2.4032756
-2.6046054
-2.0384291
-2.7665052
-1.4994969
-2.1978383
-2.1497701
-0.95942766
-2.2537219
-2.1462892
-2.3407316
-2.4207462
-2.4229235
-2.255284
-2.1346126
-2.0707623
-2.2612669
-0.90552057
-2.8011851
-2.3062432
-2.7377222
-1.4225879
-2.2893336
-2.2508286
-2.261774
-1.9622266
-2.5845379
-2.3173417
-2.0323735
-1.9040243
-2.397587
-2.0524542
-1.694572
-1.8387371
-2.1479959
-1.9600793
-3.00398
-1.0551087
0.29604247
-2.3792489
-2.4141476
-2.2366889
-2.6942778
-2.0348056
-2.2178135
-2.3880278
-2.0018357
-1.5827596
-3.1124872
-2.3535557
-2.8408967
-1.9975746
-2.1177862
-1.4292216
0.78518724
-1.7950142
-2.5512622
-2.3103381
-2.6635205
-2.5738451
-2.4105926
-2.7843465
-2.7096562
-2.6816773
-2.0563399
-3.1087789
-2.6914229
-2.5818645
-2.3549494
-2.6328785
-2.9049883
-2.7279167
-2.8659876
-2.9745293
-3.567497
-2.6783672
-2.7919401
-2.6632109
-2.1602095
-3.5674754
-2.1861985
-3.1167225
-2.9950033
-2.1995104
-1.9341556
-2.6434448
-2.6922423
-1.8276966
-2.3845724
-2.2962087
-2.5936641
-2.3629668
-2.2027337
-2.2443639
-2.3760922
-3.38992
-2.6611721
-2.1049905
-2.8716127
-2.1921067
-2.4450675
-3.5184277
-1.5166858
-2.3246405
-1.9436788
-2.0244196
-1.5818423
-2.3107986
-2.1365253
-2.3453201
-2.4379328
-2.473644
-2.282875
-1.1591666
-0.88388865
0.13826998
-2.5551852
-2.8030533
-2.5731644
-2.6442104
-1.7983819
-2.4921969
-1.5852248
-1.8386318
-2.5496575
-2.8873691
-2.8418513
-3.1886223
-2.4892758
-2.8277536
-3.1138661
-2.6067064
-2.4056041
-1.8192768
-2.6209363
-3.1631824
-2.1779972
-3.6287567
-2.6883431
-3.2956831
-2.8656103
-3.1441554
-3.3698302
-1.6209251
-2.7297839
-3.614273
-2.8947184
-2.194799
-2.9981399
-1.8425377
-0.62179895
-3.7477309
1.0864234
-0.17516727
-3.5412846
0.17453116
-2.3683159
-2.5872682
-1.8658288
-2.9256638
-2.8031781
-2.5007637
-2.6018531
-1.7033456
-2.6370277
-2.504159
-2.7751841
-2.643643
-2.8832603
-2.3459445
-2.4620453
-2.9086266
-2.7329483
-2.061836
-1.9810645
-2.6618148
-2.7861303
-2.3688939
-3.1248075
-2.254347
-2.6135653
-2.6232359
-2.3936136
-2.6966746
-2.7606755
-2.8449322
-2.5854773
-2.5460695
-2.7536764
-2.8241493
-2.1576579
-2.8224973
-2.2518073
-2.5108751
-2.2507183
-0.72205841
-2.7533044
-1.9743113
-2.1775621
-2.8202691
-2.1979871
-2.7010226
-3.1759103
-2.9950934
-1.7591926
-2.5370777
-2.7730534
-2.3631303
-2.576368
-2.5381
-2.5074891
-3.1532361
-2.3745847
-1.5051409
-2.7515067
-2.7365164
-2.1886839
-1.8141965
-2.6141423
-2.3508577
-2.8291657
-1.7235594
-2.6944646
-2.8600265
-2.6019603
-2.270784
-1.2859891
-2.2441448
-2.9193785
-2.3910052
-2.4449111
-2.5776097
-2.5996112
-2.694612
-2.6808611
-2.3118294
-2.486219
-2.8037147
-2.3016916
-2.3460905
-2.6851475
-2.6332335
-1.0773559
-3.0816412
-2.6654124
-2.1303806
-2.387581
-1.9703888
-2.1094263
-2.5554937
-2.1520183
-2.2681661
-1.6422068
-2.6484626
-2.8689548
-1.2126199
-0.2234053
-2.9796019
-2.4655889
-2.6587622
-2.3619115
-2.5748701
-2.1911071
0.096500125
-2.7682438
-3.1280737
-3.0890627
-2.4699033
-2.4838252
-0.94134326
-2.3524743
-2.4641336
-3.8907008
-2.8996028
-2.7833597
-2.7675998
-2.673218
-2.0309466
-2.4936742
-2.5517604
-2.918192
-2.9436966
-2.8325135
-2.3692564
-1.3576109
-2.5718926
-2.4376359
-2.8945677
-2.8573599
-2.6686435
-2.7632561
-3.1270007
-2.593202
-2.6414097
-2.4839131
-1.0530577
-2.0673481
-2.7021291
-2.7256354
-1.8827808
-2.638831
-2.798741
-2.6513239
-2.7036518
-2.9090107
-2.5543585
-3.0612545
-1.5585118
-3.4874439
-2.9063941
-2.6388561
-2.5963508
-2.6712367
-2.589686
-2.4283995
-2.7401137
-1.7926067
-1.3045335
-2.9954535
-2.0457789
-2.2215556
-2.7996287
-2.9429907
-2.8766821
-3.1190498
-2.393653
-2.4551051
-2.3442125
-3.0235707
-2.9794305
-2.6412648
-2.6177849
-2.2868884
-1.7732319
-2.0057826
-2.015883
-2.091801
-1.5378345
-2.0350954
-2.5520202
-2.2396143
-2.6539239
-2.0366188
-2.6378343
-1.964497
-1.984448
-2.2471276
-2.1167318
-2.1149412
-2.1312681
-1.8629135
-2.6726873
-2.0150506
-2.3605033
-2.1455889
-2.0234308
-2.8520075
-1.8273902
-1.9678426
-2.0695983
-1.8271589
-2.0340946
-2.1338686
-2.0040535
-2.423507
-2.8431704
-1.9523651
-2.3822896
-1.962609
-2.2416092
-2.7393385
-1.9789584
-2.1214624
-2.5417815
-2.0686053
-0.96852518
-2.1297262
-2.3120642
-2.0723063
-2.7035443
0.4139773
-2.5120491
-2.8296658
-2.8005536
-1.9854245
-1.9233157
-2.0823385
-2.1844203
-2.0718321
-2.2951999
-2.1187279
-2.316955
-2.0007183
-2.5676447
-2.9200444
-1.0367936
-1.0136264
0.19198033
-2.2010824
-3.6293653
-2.7687164
-2.6797902
-2.8863601
-2.6919344
-2.9937609
-3.0007312
-2.7137907
-2.8885513
-2.5884553
-2.3363573
-2.9276908
-2.3728939
-2.9028709
-2.7196608
-2.8395613
-2.7743345
-2.6277239
-2.9408746
-2.6669825
-3.21359
-2.4490123
-2.7856706
-2.1377348
-3.0500671
-2.7822136
-2.6567743
-2.0688094
-2.8547107
-2.6052653
-2.7920924
-2.799801
-2.7947436
-2.1273497
-2.4167844
-2.6141877
-2.8528803
-2.6022328
-2.5357534
-2.7651755
-2.8799653
-2.8324761
-2.7764642
-2.7195659
-2.1784492
-3.0213256
-2.0617431
-2.1890501
-1.8956421
-2.3738512
-2.0734477
-2.126715
-2.5257669
-1.0945157
-3.338531
-2.6186064
-2.4639006
-2.4214622
-2.2282246
-2.3068905
-2.2348558
-2.0016621
-2.019779
-2.428263
-2.5095075
-1.7501361
-2.2882397
-2.1498163
-2.1036717
-2.9525307
-2.9391622
-1.9506368
-1.1029871
-2.1694858
1.0829645
0.37347919
-2.7722117
-2.4016606
-2.2033769
-2.4865414
-2.7028629
-3.2035183
-2.675264
-1.879032
-2.6344527
-2.540845
-2.481918
-3.001559
-2.727371
-1.8280482
-1.2613445
-1.4172895
-2.2714234
-2.8422982
-2.8971305
-2.5630625
-2.738399
-2.1793938
-3.0188709
-2.6865503
-3.1361902
-2.7515383
-1.8112655
-2.8884893
-2.4007822
-2.9028421
-2.4390529
-2.8373521
-2.7463052
-2.6301767
-2.8167414
-1.9054001
-2.1574793
-2.2840971
-2.9785142
-3.1271125
-2.90987
-2.6210903
-2.4514852
-2.9683794
-2.8825613
-2.711999
-2.0341007
-3.2990403
-3.2090523
-3.1163723
-3.0498127
-2.6512699
-2.426511
-3.2233493
-3.1206345
-3.5422538
-2.8298279
-3.359536
-2.0034356
-3.1616708
-3.2692811
-3.2293262
-3.1437354
-3.1867233
-2.4415782
-3.253469
-2.5975613
-1.0672332
-2.0051639
-2.1229813
-0.48432035
1.767361
-2.1571278
-2.7027908
-0.59416885
-0.69536854
-2.492471
-2.1325571
-2.7158296
-2.33789
-0.97474506
-2.4290157
-2.0737531
-2.4346833
-2.679792
-2.6057402
-2.7525656
-2.3259979
-2.4779991
-2.2735351
-0.88231427
-2.6980616
-1.6112348
-0.80838253
-0.260768
0.44766385
0.99035141
0.4816353
-3.3499093
-0.68654389
0.34959885
1.8687283
-0.85413394
0.74935907
-0.99348707
-2.8088644
-1.6519307
-2.2969453
-2.7988374
-2.0556914
-3.558637
-2.5244443
-3.1448948
-1.6893036
-3.1055538
0.6193671
-1.2469714
-2.4811648
-2.7600011
-2.6857422
-2.7646803
-2.9175967
-2.2650112
-1.8170226
-2.6947855
-3.336896
-1.9380083
-3.1588378
-2.8746571
-2.7041223
-2.3981489
-2.2243159
-2.6625181
-3.0630396
-3.0893372
-3.0126602
-2.6117261
-1.8758353
-2.8934419
-2.6300582
-2.9209532
-2.6465914
-3.5173657
0.45558974
-2.7980909
-2.031425
-2.8459741
-2.8428261
-1.7795117
-2.4596384
-2.2494709
-1.9098043
0.95440548
-2.3810065
-2.0782147
-3.0491091
-2.8152714
-2.9026783
-3.0281614
-3.134424
-1.5866974
0.040845339
-0.79332815
-0.12469553
-0.10426134
-1.041105
-1.7559858
-1.704281
-4.0837938
1.4147675
-0.6204296
-2.8730436
0.70510552
-3.2952058
-2.9554067
-2.5974498
-2.0225041
-2.4345818
-2.3931028
-2.9967846
-3.2254424
-3.0248128
-3.0218823
-3.0648438
-2.9917513
-1.6783412
-2.0846317
-3.0247676
-3.7687157
-2.1032362
-3.2117243
-2.3444769
-2.2025865
-2.3830415
-2.634774
-2.5582681
-2.7080219
-2.0491028
-1.5378449
-2.1680552
-1.7955729
-2.3659027
-2.0676351
-3.1746473
-2.1837047
-2.0663128
-1.8608636
-2.6608835
-1.8189587
-2.0086749
-2.0725095
-1.8130223
-2.0682121
-2.0238294
-2.1618699
-2.0580394
-2.4970162
-2.0600854
-2.7675586
-1.8498575
-2.6572486
-1.9373766
-3.6082599
0.33926464
-1.71496
-4.0222723
-2.421553
-2.4418529
-3.5672121
-2.290491
-2.3858325
-1.6010593
-2.8520262
-1.8774738
-2.3330151
-2.2263254
-1.5504433
-2.5688694
-2.9505942
-2.1735792
-2.6467697
-2.6272222
-2.7394583
-2.8138381
-2.8906925
-2.6020221
-2.6609438
-2.4076099
-2.7776256
-2.9055292
-2.8509426
-2.4826616
-2.3159017
-2.0083641
-2.7399314
-2.5367728
-3.1449852
-2.1411765
-1.9816748
-2.8846041
-3.0761592
-2.9884572
-2.7908576
-2.7855658
-3.2997281
-3.3135505
-3.229629
-3.1600993
-2.7325011
-2.8593656
-2.8001582
-2.9338707
-3.167377
-3.0663254
-1.6990958
-3.1822439
-2.6300185
-3.0548789
-2.7583012
-2.4505026
-2.9354647
-2.7488321
-2.8168157
-2.0192804
-2.4483326
-1.0144553
-2.4182476
-2.8174098
-2.7759048
-2.8377639
-2.6918286
-2.585277
-2.8901479
-3.224003
-1.4093995
-2.5862889
-2.8066564
-3.4503925
-2.4285908
-1.9388649
-2.6147849
-2.9143962
-2.8552811
-2.9935779
-2.8270426
-2.8355951
-2.8488074
-3.3571332
-1.2513579
-1.7036835
-0.40178415
-2.5130955
-2.8866782
-3.0940027
-2.6076598
-2.8793805
-2.8908192
-2.7130697
-2.969826
-2.8473553
-2.7790912
-3.0925215
-1.482825
-3.2099951
-3.1434084
-2.8457504
-2.7870936
-3.2908951
-2.7010177
-2.7239544
-2.1668463
-3.1116897
-2.4066183
-2.2757139
-3.0513683
-3.1421501
-2.9420586
-2.8902859
-3.0136618
-2.8370947
-2.8530786
-3.4536221
-2.8146417
-2.3708254
-3.0681968
-1.6654394
-0.98888661
-3.3959048
-2.5712142
-2.7189554
0.8699785
-3.0546747
-3.0500823
-2.8247747
-3.0384114
-2.9971085
-2.7922023
-2.8267482
-2.7184221
-3.2497306
-1.0789067
-2.896206
-1.7106044
-2.6723064
-2.3313387
-2.7501525
-2.8838414
-2.4734286
-2.8202501
-2.5357909
-2.5945598
-2.7517319
-3.0181193
-1.8450427
-2.1627791
-2.7970288
-2.0326396
-2.4649489
-3.1310223
-3.0797679
-2.5027292
-2.3065125
-2.7053744
-2.5087146
-3.2176904
-3.1047844
-2.6753764
-2.8019537
-0.15474142
-2.3072301
-2.2773045
-2.2374472
-1.6038981
-1.9111313
-2.319952
-2.017513
-1.7297499
-2.8877133
-2.863638
-2.7591692
-2.8226229
-2.5090882
-1.7089741
-2.8964773
-2.4387692
-2.9541205
-3.0088642
-3.1449497
-2.8347324
-2.3706127
-2.6700428
-0.75325852
-3.2126971
-2.6010619
-2.8976603
-2.7768905
-2.1064805
-2.5495683
-1.919838
-2.2245584
-1.1011522
-2.9312339
-2.7570079
-3.0518148
-1.3199358
-2.1785006
-2.7473505
-2.7366016
-2.8046267
-2.5364993
-2.5258251
-2.9220237
-2.4057075
-2.8988157
-2.8872096
-0.33903269
-2.9592296
-2.9200623
-3.0826199
-2.4858586
-2.6751979
-2.6599307
-2.8926063
-2.4011965
-2.7106454
-0.52028645
-1.9369702
-1.7731077
-1.6906077
-2.3057586
-2.165653
-1.94732
-2.1047673
-2.1622696
-2.2512808
-2.5958503
-2.3263353
-2.0853067
-2.6128895
-2.1293438
-1.2643696
-2.3476316
-2.6831206
-1.5992022
-2.4473609
-1.7192796
-0.81146433
-1.9191271
-2.3671585
-2.1737647
-2.0941924
-2.1832331
-2.076581
-2.2854301
-2.0206419
-2.1043388
-2.1604639
-1.9921398
-2.1856724
-1.5794353
-2.4299011
-1.6618632
-1.5866329
-3.4045702
-1.9383007
-2.2077916
-1.8228011
-3.108733
-1.8709764
-2.1307149
-2.0321014
-1.5593524
-1.7413883
-1.2529341
-3.160211
-2.209332
-3.1510321
-2.6108897
-2.6453484
-1.1409577
-1.9626918
-1.267536
-1.9849937
-2.4823537
-2.4708369
-3.3759634
-2.3526085
-2.9565722
-2.7670585
-1.1579891
-2.6762611
-2.3732271
-3.1024559
-1.960325
-3.0981022
-3.3605231
-2.9149867
-2.2965762
-1.8449771
-3.3182564
-2.9486071
-2.7539708
-3.2520961
-3.1013253
-2.957288
-3.4711909
-2.3697931
-2.8938039
-3.8566543
-1.6597719
-1.3445486
-2.4178179
-0.98639025
-2.638009
-2.8083519
-3.0575119
-3.1112878
-2.9241489
-1.8960707
-3.1351787
-2.6175167
-2.672514
-1.1535345
-2.6665627
-2.8344911
-2.611508
-3.4916164
-3.1843996
-2.9517829
-1.412506
-0.48821599
-2.9107966
-3.2963308
-2.7277701
-2.9510348
-0.96708617
-3.387444
-2.696562
-2.7903471
-2.6454088
-2.9427705
-3.2182472
-2.9618989
-3.0512904
-3.1973394
-3.3244807
-2.7228628
-3.313489
-3.0082745
-2.5027601
-3.4287784
-2.9468779
-3.455346
-2.9077038
-1.8298315
-3.0647789
-2.9052418
-2.8331933
-3.3253096
-3.2706507
-3.1670925
-2.1790801
-2.707286
-2.8895086
-3.162799
-1.8841521
-3.1068782
-3.3774461
-3.2193398
-3.1429812
-3.009047
-2.9898743
-3.2775725
-3.0385372
-3.3230151
-3.0522723
-3.0105134
-2.7487192
-1.6461272
-2.9494736
-3.3225892
-2.980019
-3.0751984
-1.5778818
-2.9511703
-0.99399485
-2.1667662
-3.1821201
-2.8796292
-2.9025875
-3.154736
-2.8535037
-2.7431618
-2.3320186
-3.1814534
-3.116042
-2.0685912
-3.1734993
-3.521669
-3.1873702
-3.4504399
-2.9299995
-2.9525283
-3.0361311
-3.2590411
-1.7333016
-1.9130741
-2.3303327
-2.2270776
-2.5132999
-2.1285901
-1.6491769
-1.8091007
-2.5835926
-2.1733848
-2.2860203
-2.4846984
-2.7694514
-2.8123754
-1.9575542
-2.6574731
-2.0976631
-2.7986478
-1.9303198
-2.3839507
-2.6072412
-2.214381
-2.0328905
-1.9162032
-1.8516818
-2.790526
-1.160182
-2.949387
-2.8373942
-2.6436424
-2.8215263
-2.6543712
-2.4074994
-2.2243859
-2.3894453
-2.5148509
-2.3629058
-2.3322882
-2.6302357
-2.4347468
-2.522012
-2.4293977
-2.4478082
-2.752638
-2.4556097
-2.3015955
-2.8507434
-2.4364336
-2.534137
-3.087431
-3.0258316
-1.6003855
-3.2056313
-2.4518397
-2.3878865
-2.6852206
-2.9666494
-2.7505874
-2.8245584
-2.4848823
-3.203971
-2.3872239
-2.674103
-1.1935008
-2.8080265
-2.9893472
-3.2025032
-2.7392839
-2.9964085
-2.7815167
-2.7504352
-2.5214228
-2.1793913
-2.4278146
-2.5812937
-2.7133518
-2.4019081
-2.4388182
-2.5337876
-2.8339591
-2.6137441
-3.2724841
-2.4989866
-2.5538372
-2.5483053
-2.8455504
-2.2742429
-2.5896836
-2.4146096
-2.0527916
-1.7242368
-2.2594938
-2.5135597
-2.6843507
-2.4338961
-2.9112751
-2.3486944
-2.7646007
-2.4329745
-2.5225782
-2.6425089
-2.0564446
-2.8729366
-2.607795
-2.6302303
-2.7788722
-2.4568887
-2.3799949
-2.9723683
-1.5207812
-2.3403129
-2.8588846
-2.4400831
-2.3675724
-2.679497
-2.3164723
-0.34334699
-2.7272348
-2.801514
-2.6089832
-2.6861411
-1.5965955
-2.9355795
-2.703087
-2.6882942
-2.6303714
-2.7002113
-1.9422776
-1.8979611
-2.6854949
-2.7784028
-1.9924555
-2.3263857
-2.1344399
-2.8784913
-2.3382098
-2.1347385
-2.0511411
-2.2086137
-2.0135986
-2.1787731
-2.5726409
-2.164257
-2.5777928
-2.6168079
-2.3257459
-2.6718754
-1.9297415
-2.3264233
-1.4141181
-1.3484322
-2.5578438
-1.8300356
-2.6301654
-1.8146814
-1.4218364
-0.87019844
-1.3350108
-0.93718943
-1.3939275
-0.83304445
-1.3946003
-0.71614334
-1.6734498
-0.41413892
-0.95829435
-1.6581675
-1.4297257
-1.2152412
-1.2079345
-1.4881875
-0.62881713
-0.76830793
-1.0960507
-0.79818922
-1.1722373
-1.4039826
-1.1231294
-1.4841384
-1.2340695
-1.0899548
-1.538253
-1.0987882
-1.3026946
-1.5973525
-0.75388242
-1.5749534
-1.1357989
-1.5146735
-1.5673498
-1.2630267
-1.0087454
-1.662319
-1.2642365
-0.76689735
-1.7072734
-0.17996766
-1.3397305
-1.2974898
-1.6991684
-1.5617068
-0.72131296
-1.4183493
0.053906977
-0.12373028
-1.3376374
-1.2939013
-0.5486912
-1.114083
-1.7264321
-0.58052624
-1.4417131
-1.5017626
-1.5050003
-1.1664936
-1.5998302
-1.5287587
-1.8207965
-1.3034824
-0.98434527
-2.0302148
-1.2393
-1.3722596
-1.2345452
-1.6678011
-0.8479429
-1.3026113
-0.78923504
-0.93692019
-1.4154796
-0.59518561
-3.478518
-1.1462911
-1.4077641
-0.70048871
-0.96927325
-0.92647397
-1.1389096
-1.9320624
-0.59379832
-1.9609476
-1.5644151
-1.5394665
-1.3972855
-1.2715791
-1.2273425
-0.8042398
-1.6579134
-2.1669335
-1.3744114
-1.7732298
-1.7271353
-1.8297429
-1.5726199
-1.2334644
-1.1818194
-0.99504018
-2.0413525
-1.8076857
-1.0240431
-1.9026025
-1.2714753
-1.2525836
-1.2783844
-0.72275746
-1.12454
-1.9630806
-1.0793727
-1.8612848
-1.2932258
-0.86110988
-1.2445111
-1.3663121
-0.5205766
-0.73031284
-1.2236252
-1.5874792
-1.1025517
-1.8285497
-0.37527199
-0.61979421
-1.8425263
-0.67213938
-0.93595072
-1.3344092
-1.3980581
-0.79849245
-1.5086419
-0.65439902
-1.7140026
-1.2128123
-0.76705808
-1.8208821
-1.088501
-1.593374
-1.6807177
-1.4792324
-1.5970497
-1.5490279
-1.6354406
-1.0285778
-0.81511322
-1.5453753
-0.17473464
-1.6646927
-1.4746825
-1.2806228
-1.5102842
-0.98035904
-1.4467448
-0.32601534
-1.3874457
-1.6703297
-2.0694829
-1.8661064
-2.2163794
-2.8160199
-2.4695767
-2.0011877
-3.0129221
-2.7622072
-2.5065346
-2.4279399
-2.4634001
-1.8756441
-2.6417887
-2.156965
-2.6425806
-2.0723192
-2.1400739
-2.8405816
-2.3924009
-2.8468177
-2.4117014
-2.7971383
-2.6888576
-2.5982425
-2.7143966
-2.7561523
-0.40147587
-0.39719086
-0.20782032
-2.5905403
-2.497032
-2.430146
-2.6059062
-2.6525434
-2.3367821
-2.3069263
-2.8551677
-3.0529096
-2.440991
-2.3672938
-2.4395892
-2.0666592
-2.5188929
-2.1717706
-2.2390056
-2.7070833
-2.2732333
-2.6489759
-1.7492859
-1.6911074
-0.26629832
-2.1446576
-2.8408036
-1.9672846
-2.4581864
-2.4983822
-2.5637539
-2.1901969
-2.0953786
-2.6835168
-2.1309214
-2.8865484
-2.1558758
-2.1999498
-2.7848823
-2.5616256
-2.5291678
-2.2495467
-2.7454628
-2.2684978
-2.6246182
-2.533781
-2.8954941
-2.0914607
-2.7547588
-2.3178082
-1.3919759
-2.1106442
-2.12714
-0.78586379
-2.4469468
-2.6303002
-2.2412208
-2.0782589
-2.676467
-1.1750683
-2.5018377
-2.44966
-2.8282549
-1.9340639
-0.58856994
-0.96993082
-1.2249441
-1.6441982
-1.6191591
-0.82548285
-1.3823074
-0.74881059
-1.6634306
-0.86945123
-1.0506872
-1.1850858
-1.7174494
-1.1839321
-1.4000892
-0.99199741
-1.1351263
-0.92505758
-0.97311768
-1.2151071
-1.6603002
-0.85329924
-1.1781685
-1.2402766
-1.392538
-1.7023212
-1.5500217
-2.0761122
-1.4750351
-1.2901073
-1.3847475
-0.6316624
-1.8687231
-0.95174473
-1.5599864
-1.2044062
-0.96660887
-0.93819119
-1.8131997
-1.9698135
-0.94258303
-1.2064528
-0.72698524
-1.349848
-1.5928486
-1.7322267
-1.2673428
-1.0804162
-0.93926627
-2.1678867
-1.3232381
-1.0601866
-2.6550544
-2.9446817
-2.4047749
1.3643635
-1.8444614
-0.15022584
-0.12859253
-0.20106314
-1.203403
-2.724292
-1.8150578
-2.8140241
-2.8070536
-2.4914947
-2.6196632
-1.6795077
-1.957647
-1.9232921
-2.2458851
-2.0141614
-2.1890492
-2.0892637
-2.309703
-2.2409444
-1.4961478
-2.2067597
-3.2680335
-1.8031125
-1.0772629
-3.1234127
-1.9844905
-2.1293662
-1.7059782
-1.7452799
-2.2048401
-2.4902649
-1.792384
-1.1751187
-1.829071
-2.2513891
-1.7080787
-2.008317
-2.1510439
-2.0868601
-2.0680388
-2.0796227
-2.5823783
-1.7146261
-1.6860931
-2.358971
-0.38745953
-1.3010182
0.23878468
-1.6707102
-2.2246655
-2.3512874
-3.3241477
-1.9085684
-1.9817196
-1.3712753
-2.3330408
-3.6967773
-2.1350648
-3.5936492
-2.1783316
-3.4030459
-1.6602175
-3.4366953
-2.3843045
-3.2512761
-2.8840858
-2.2513444
-3.673658
-3.1894711
-3.1019465
-2.3119398
-3.0434403
-2.7079742
-3.5957614
-2.2420263
-2.7896732
-3.4146829
-3.1574287
-2.6056483
-3.0531138
-2.2863774
-2.3187966
-2.5439296
-2.8060691
-3.0915933
-3.6448946
-3.3516951
-3.8563587
-4.1711851
-3.6794334
-2.4493915
-2.7904049
-2.7889898
-3.6491466
-2.1586857
-3.0214562
-2.3430502
-3.177469
-2.6642949
-3.5500117
-2.820388
-2.8465227
-3.288667
-2.5036412
-3.1371953
-3.421218
-1.7205565
-4.0089902
-1.8375368
-2.6440412
-3.4340577
-1.9697448
-2.7389396
-2.1947551
-2.0017602
-2.6463354
-1.882782
-1.9906178
-2.3519265
-1.9755381
-3.6995089
-1.5582096
-1.9510597
-2.1965741
-1.7302438
-1.6960477
-1.988669
-3.7958751
-1.9726652
-1.9125855
-2.2546131
-2.4083464
-3.6335885
-2.1667682
-3.5150994
-2.5519187
-3.6460799
-2.1759595
-3.5494468
-2.4697962
-2.0855877
-2.0920011
-1.9716259
-1.183724
-1.7464766
-0.98261949
-1.9742363
-2.8584515
-2.2864769
-3.2206043
-2.7245869
-2.8302352
-2.3738219
-2.3561715
-3.2632053
-2.2403647
-2.9318975
-2.2348502
-1.6641625
-3.4925603
-2.6227202
