-4.376041
-4.0223767
-4.1874487
-4.2680158
-4.3382241
-3.3212415
-4.2193569
-4.6042007
-4.6864151
-2.8533008
-4.0879723
-3.8904138
-3.9225581
-3.2376915
-4.0682246
-3.8416655
-4.1531318
-4.1807232
-3.9954373
-3.3014551
-3.7996727
-4.2434162
-3.8880809
-2.9968963
-3.7242411
-3.4999203
-4.5017257
-2.8349715
-3.1004608
-4.0340122
-0.13322346
-1.3682153
-3.8246242
-2.6757808
-4.0037859
-4.1050392
-3.4220443
-3.2893642
-4.1227825
-4.9372699
-3.8054927
-3.9511298
-3.4171372
-4.282336
-4.3606358
-3.5874414
-3.6696191
-4.7367288
-4.3342606
-3.6957857
-4.0543767
-4.0062885
-3.8254951
-3.7326101
-4.2165415
-3.8016746
-3.4910048
-4.0186406
-3.2785752
-3.9280802
-4.0644448
-3.7246214
-3.9019369
-4.4153574
-4.148792
-4.4884929
-3.3524866
-4.4296121
-3.7537154
-3.3933724
-3.9120105
-3.9512719
-3.9601375
-3.8724592
-4.2405464
-4.0288031
-3.8510367
-4.2261783
-4.9805958
-4.4282824
-3.6594128
-3.9787622
-4.0569888
-3.996241
-3.6197002
-3.6929832
-4.6215038
-3.4182205
-4.1870262
-3.8960083
-3.9792881
-1.9304834
-5.1923719
-4.38805
-4.3968622
-3.3285698
-4.5339097
-4.0397627
-3.5766213
-4.1071047
-4.6558949
-3.6820196
-3.4823674
-3.5061869
-4.3943825
-3.8620515
-3.6721897
-4.118897
-3.7727107
-3.9551123
-4.7521632
-4.2403886
-3.514141
-5.3757152
-4.6415307
-3.5119509
-3.6951869
-3.1729129
-3.5715053
-3.2673772
-4.526423
-2.9274874
-4.3651655
-3.7060609
-3.9556113
-4.4052602
-3.8314997
-3.9141973
-3.881478
-4.0575202
-3.9411015
-3.8282693
-4.3731837
-3.744105
-3.4249569
-3.5790774
-3.593457
-3.855281
-2.7930139
-3.7993004
-4.1947659
-3.540598
-3.7034544
-3.9488412
-4.2865004
-3.7318587
-3.432675
-4.2225219
-4.0959364
-4.1764837
-3.7125122
-3.3375155
-3.6978788
-3.6790513
-4.2332064
-3.8742881
-4.2192934
-3.712644
-4.3180749
-3.8747406
-4.519848
-4.2595653
-2.9533476
-4.521792
-3.9179903
-4.3233387
-3.5424282
-4.1090907
-4.5229248
-3.8181662
-4.1378343
-4.1518045
-4.1148402
-4.0943017
-4.3580382
-4.1843237
-3.7509065
-4.0334316
-4.3395065
-4.0437859
-3.8697548
-1.81708
-4.2249218
-3.5763879
-3.7421286
-4.218367
-3.6761231
-3.6112509
-3.3343218
-4.0019439
-4.2720566
-2.8267044
-4.357416
-4.0272252
-4.1335538
-4.3382171
-3.5284009
-4.2210847
-3.8410026
-3.7764059
-3.7711803
-3.5011831
-3.8442916
-4.1169004
-3.8177268
-3.0573066
-3.9107834
-4.427945
-3.3633212
-3.7906861
-4.0703088
-4.6068463
-4.3993817
-3.6379045
-3.6036818
-3.8281215
-4.3061452
-3.7971045
-4.1606349
-2.6358864
-4.14615
-3.9690436
-4.0641044
-3.6245255
-3.889567
-3.8060302
-4.6489552
-4.2757488
-3.6625308
-3.8129568
-4.1650922
-3.8718547
-4.0030064
-3.7473777
-3.1518604
-4.6432408
-4.3350142
-4.1861682
-3.9988204
-4.0350237
-3.7042812
-3.8229948
-3.8837226
-3.6035235
-3.9759672
-4.2000202
-3.7227796
-3.7560501
-3.9349295
-3.966176
-4.2145259
-3.7060394
-4.0764699
-3.2276118
-4.1800477
-3.9450637
-2.6990038
-3.9166953
-4.1915656
-3.9942927
-3.9005696
-3.9738712
-3.8915072
-3.9898581
-3.5816102
-3.8740598
-4.0833472
-4.4760674
-4.0429909
-3.5853458
-4.4007102
-3.7904288
-4.5265875
-4.3607939
-3.1910079
-4.5465351
-4.1974143
-4.0241634
-4.3713558
-1.4991075
-4.5763373
-4.2496292
-3.878576
-4.3014956
-3.9559807
-4.1550949
-4.3341106
-2.9238454
-4.3985981
-3.1930389
-4.2028912
-4.310554
-1.8057748
-0.89479525
-1.7758509
-1.7378376
-0.96345414
-2.2311288
-3.2616403
-2.9711166
-0.35719059
-2.6523832
-2.1569214
-2.3726967
-2.9001118
-2.8262284
-2.3033436
-2.8061165
-2.2236498
-2.8897904
-2.5465114
-2.325634
-2.1746822
-2.38636
-1.6543863
-1.9620667
-2.5897262
-2.1438741
-1.1635506
-2.0535611
-2.4798316
-2.6503579
-1.6892276
-2.6944834
0.015371053
-2.5992512
-2.8148465
-0.45931076
-2.2834803
-2.6880651
-2.5717777
-1.8795917
-2.1927762
-3.4150581
-1.3026149
-2.014846
-2.29885
-3.0957553
-1.8924416
-3.2072113
-2.4649795
-2.5727098
-0.65857721
-2.1552032
-1.4649155
-2.2296081
-2.6591297
-2.2191224
-3.1452044
-2.7932169
-1.826466
-2.9749925
-1.8172337
-3.3708202
-2.5041596
-0.6420149
0.87618789
-2.8196548
-3.1709537
-1.8039083
-3.2930729
-2.5630663
-1.5848538
-2.2870572
-0.26923341
-2.4021072
-3.676697
-1.8529538
-2.094975
-2.3637444
-1.1433345
-3.1522299
-2.4112669
-2.6375783
-1.7432822
-1.0584275
-3.1152944
-2.2289359
-2.9515823
-2.842115
-1.0797453
-1.8287466
-2.5621998
-2.6000052
-1.3762776
-3.2046762
-2.9517302
-2.6210997
-0.80822628
-2.2463917
-1.3927647
-2.3023593
-3.3489544
-2.9452943
-2.8172371
-2.005887
-3.2718462
-2.7333408
-2.7756332
-2.6684043
-2.5979491
-0.86200474
-2.0084073
-1.8885364
-0.66619071
-2.8309142
-2.5838353
-3.4431024
-3.6023029
-0.17771213
-1.9876918
0.37298159
-3.096473
-3.2656059
-2.2119089
-2.9717346
-3.0559574
-2.9226084
-1.545915
-0.85264837
-2.8564956
-3.3855979
-1.6134075
-1.2563441
-3.3826415
-2.4806593
-0.9631749
-2.8538332
-3.332447
-1.7315786
-2.9368956
-2.0788547
-2.3737705
-2.7131959
-1.1142138
-1.3233162
-2.4665585
-2.8435303
-3.5654752
-2.8823124
-1.7124342
-1.8808622
-2.5254543
-0.40106958
-2.7224815
-0.84819123
-0.52440298
-2.7646504
-2.9211784
-2.0195023
-2.7665864
-0.65557025
-0.31789503
-2.2456261
-0.5406946
-2.7319345
-2.2806493
0.077120449
1.0145571
-3.0057692
-0.44490178
-2.545687
-2.5699105
-2.5180807
-2.1879977
-0.72249828
-2.4560729
-2.9443438
-1.2565711
0.42291583
-1.481858
-3.1140649
-1.6475158
-1.6828365
-1.6042312
-1.7995452
-1.4394791
0.51568552
-1.4347242
-2.9855777
-2.166383
-3.0572803
-2.3237715
-4.1487828
-1.6437968
-2.3285359
-1.6975324
-3.4299832
-2.2851079
-2.6128534
-2.8712684
-3.6532437
-2.8354773
-1.6688787
-2.4880894
-3.5597319
-3.1763512
-3.122156
-3.6506084
-3.3124416
-4.5744716
-3.4779528
-3.5279051
-4.196857
-4.0170422
-3.4391753
-4.1003963
-3.6344792
-4.0825571
-3.1075997
-4.0674552
-4.6141753
-3.7552075
-3.619024
-3.6736708
-4.4721152
-3.8464608
-3.9536667
-4.0700804
-3.63063
-3.6240458
-3.4589863
-4.1651951
-3.5904467
-3.365427
-3.5976275
-3.8408778
-4.7579753
-4.1429998
-4.0540901
-4.0073892
-4.179482
-4.1359387
-3.7568338
-4.1252131
-4.5454871
-3.1541514
-3.243511
-3.8318108
-3.9129069
-3.3230438
-4.0448527
-4.0920463
-3.9856902
-4.1225047
-4.0349674
-3.6013652
-1.6306348
-3.9877391
-3.5910435
-4.5952938
-3.9498658
-3.7658997
-4.3771851
-3.7220003
-4.5325338
-4.1730373
-4.1529367
-3.7519092
-3.8769642
-4.0872599
-4.1170917
-4.1983786
-4.0333019
-3.8385911
-3.8297232
-1.5948093
-4.3906088
-4.0741812
-3.8548258
-3.0805063
-4.674722
-3.0128925
-4.1777883
-3.3003375
-4.2408354
-3.8352732
-2.2664798
-3.5151482
-4.2239607
-4.0487908
-4.0928873
-4.307857
-3.8652326
-4.6324843
-3.7550486
-3.8532239
-4.2267281
-4.4002129
-3.4956915
-4.309155
-4.0506258
-3.8367913
-4.0824696
-4.2123289
-4.4709185
-3.6604292
-4.5647611
-2.9977
-2.8910497
-3.8730168
-3.332448
-4.4375682
-4.2840091
-3.7314759
-3.6298736
-4.2785806
-4.2631978
-4.0922907
-4.257733
-3.2455322
-3.7155926
-4.0396383
-4.3510365
-3.6062101
-4.1473311
-3.8036812
-3.7375693
-3.7969641
-4.107867
-4.2889058
-3.0786263
-3.0229699
-4.5187273
-4.4811803
-3.9489488
-3.5803931
-3.9885975
-3.5900312
-3.6941789
-4.0648165
-3.8591154
-4.4142058
-3.5886835
-2.1257504
-3.500866
-3.9037013
-3.6851201
-3.1296592
-3.6387163
-4.0760514
-4.5761436
-3.9725822
-3.5362108
-4.0033438
-3.9914038
-4.3368749
-3.9556709
-3.3634723
-4.3111466
-4.8691708
-3.6073055
-3.4370653
-3.2761318
-3.4764717
-3.8818206
-4.0676916
-3.9356943
-4.4270292
-4.4054079
-3.9432576
-4.7071505
-4.727717
-3.9281794
-3.9933515
-3.9657574
-3.4355296
-3.7207057
-4.2942193
-3.4951586
-4.2342903
-4.0576271
-3.5336765
-3.4659163
-3.2114951
-3.3465681
-3.0317101
-3.5961153
-1.7474247
-3.7600295
-3.809422
-3.6546611
-3.8178544
-4.0732306
-4.0271654
-3.9650916
-4.145176
-4.1961676
-3.8939667
-4.0670043
-4.6411984
-3.8411202
-4.3146118
-4.4051729
-4.6033135
-4.1702225
-3.9206605
-4.1063797
-3.9682292
-4.3313269
-4.1684418
-3.9623692
-3.5314117
-2.9192135
-3.690327
-3.4050601
-3.9856679
-4.1136199
-4.3238024
-2.1566561
-2.3122459
-3.9729678
-4.5190799
-3.156243
-4.1016024
-2.8944246
-4.2948574
-3.4588646
-3.2998856
-4.1024159
-3.7561524
-4.1886041
-0.93252816
-3.3822635
-4.0377022
-4.8171345
-3.5424442
-3.5942437
-3.143764
-3.795471
-3.7478977
-3.4074675
-3.9638395
-4.0725798
-4.1472126
-3.6238684
-4.1385245
-2.9479995
-4.3878115
-4.0815154
-3.5631405
-4.321528
-3.8117637
-3.9842201
-4.867567
-4.1785439
-3.7137351
-3.8574703
-3.9433561
-4.3814999
-3.8304157
-3.4719398
-4.5904891
-3.8783718
-4.0623695
-2.1497918
-4.3525822
-2.7239194
-3.1875204
-4.2102764
-4.231364
-3.7804542
-3.9555943
-4.0155878
-4.3087391
-4.0182586
-3.9100739
-4.3078098
-4.3574847
-4.8539298
-3.9021782
-3.4351876
-3.2932688
-3.8845197
-4.0969005
-4.0864702
-4.51123
-3.9883391
-3.7912609
-3.8841632
-4.2826086
-4.2812208
-3.2643023
-3.6049779
-3.7725712
-4.1546263
-3.6340024
-3.7136375
-3.4104618
-4.2048584
-4.0621673
-3.791479
-4.3959539
-4.4493662
-3.8622279
-4.2092953
-4.2646842
-3.7911818
-4.0118821
-3.615653
-3.3694679
-3.5580355
-2.8760982
-3.1903567
-3.787064
-3.6274829
-1.0131808
-3.8726349
-4.1810085
-4.3979312
-4.1474367
-4.0809635
-4.4309905
-3.5620552
-4.6119042
-4.3118013
-4.2170943
-3.6751567
-4.06655
-3.5399326
-4.0454012
-4.1598128
-3.6187057
-3.5576602
-4.0737762
-4.1746334
-3.6009682
-3.9994921
-4.2230306
-3.5917397
-3.7179793
-2.9791572
-4.1849296
-3.4748451
-3.3528533
-4.0210644
-3.2617709
-3.9065144
-4.4946799
-4.5687626
-3.9001147
-3.6104657
-3.1948642
-4.566138
-4.0422574
-3.9564142
-4.5110041
-4.0489881
-4.5952386
-3.8852526
-4.3606527
-3.7197016
-3.778727
-4.1292188
-3.8670419
-4.336741
-4.306835
-2.1367159
-4.0712339
-0.94104631
-3.825354
-4.058288
-2.5219495
-4.2418105
-3.8436055
-4.0054822
-4.1286541
-4.2781135
-4.6842436
-3.4918421
-4.0364839
-5.0864384
-3.7432364
-4.2368098
-2.9682377
-4.4085681
-3.9898896
-4.0729188
-3.6456634
-4.6133947
-3.8960352
-4.7694219
-4.3330456
-4.2009813
-3.7710527
-3.6093782
-3.6555231
-4.7366958
-3.6720927
-3.6336276
-3.697944
-4.523329
-3.7332384
-4.4389986
-3.4164773
-3.8353721
-4.1087947
-4.1813927
-3.5916796
-2.6597487
-4.1342976
-3.5875303
-3.9375404
-3.5816716
-4.2237659
-3.5020468
-4.0872214
-4.5379246
-3.9923822
-3.9072275
-3.5367337
-4.3410809
-3.1383356
-3.2187242
-3.3969847
-3.619566
-4.4123813
-4.4992601
-3.9748082
-2.8233882
-3.8119935
-3.643043
-4.3214802
-4.1380115
-3.2459511
-4.4168466
-3.827281
-4.8648562
-3.7934663
-4.2851962
-3.9058524
-3.8332664
-4.5055912
-4.2213369
-3.8574834
-3.9979901
-4.7705841
-4.2888147
-4.1436946
-3.5800756
-3.9681684
-3.1889112
-3.2546343
-3.1570813
-4.2167585
-4.0527463
-4.3455596
-3.5683681
-3.9638375
-3.6562282
-4.3712081
-3.6775817
-3.3822573
-3.0933144
-3.8694288
-3.71931
-4.4140012
-3.717966
-3.9220492
-4.2712661
-4.0652265
-4.0578957
-4.0173881
-4.2539738
-3.9514932
-3.6094824
-4.3608071
-4.8431451
-3.9355565
-3.6014138
-4.5433093
-3.3577488
-3.952751
-3.4220993
-3.8196485
-4.1208149
-4.0862989
-3.9113437
-4.1354835
-4.2395179
-3.0337447
-3.1222799
-2.8684628
-3.9125135
-0.57394317
-3.4586285
-4.2988786
-3.9239352
-4.3963869
-4.0511106
-4.1027512
-3.3996716
-4.411541
-4.1134829
-4.4084159
-4.2601967
-3.3439655
-4.5635815
-3.9567627
-4.3203588
-4.3653077
-3.932273
-4.0636728
-4.2204885
-3.8062404
-4.8950671
-3.9996423
-4.0016205
-3.8110079
-3.6929963
-4.3343595
-4.1516863
-1.9680585
-2.9335643
-3.8517548
-3.8921385
-3.5575534
-4.886242
-4.3840244
-3.311367
-2.9204978
-3.2993438
-4.1707957
-4.2658112
-4.0303963
-4.3073022
-4.126832
-3.707223
-2.6472532
-3.5395003
-4.589799
-3.7676875
-3.9221757
-3.7025074
-4.3531674
-4.0024084
-2.8797679
-3.8605268
-4.3703517
-2.9997488
-1.490571
-3.6900415
-3.4317801
-4.0701627
-4.0511804
-4.5747318
-3.8335827
-3.8832362
-4.0103738
-3.6240837
-3.6880637
-3.7304842
-4.1936899
-3.6392487
-2.3088653
-4.0678198
-3.640493
-4.1406583
-4.0036088
-4.2527778
-3.7129545
-3.1937283
-4.3788866
-4.0704899
-3.4202764
-4.59753
-4.3289001
-4.7217904
-2.8230008
-4.7268727
-3.8286765
-3.5518239
-4.2478919
-3.0960505
-3.6404842
-4.3253077
-3.6659691
-4.2994245
-4.2364817
-4.1618433
-3.8968257
-3.7438898
-3.7836838
-3.8875082
-4.0496684
-4.3154841
-3.8905824
-4.0748511
-3.6644077
-3.9044452
-3.3084389
-4.5801893
-4.6396123
-4.5699288
-3.4501816
-3.9362258
-4.5754875
-4.0295709
-3.7101677
-3.6277703
-3.7098958
-4.0368097
-3.8480354
-4.0757534
-3.9281307
-3.9118317
-3.9319627
-3.9192998
-3.9201492
-4.0587169
-3.6092274
-3.7141307
-3.6520472
-4.2273281
-4.4634442
-3.8336846
-3.6054265
-3.9588806
-3.5178339
-3.6164298
-3.7556045
-3.9447338
-4.1576142
-3.7624316
-4.1516506
-3.9656849
-3.5260718
-3.7472552
-3.93353
-3.1707196
-4.5542601
-3.8908542
-3.728183
-3.6250659
-3.6658679
-4.7334476
-4.1610334
-4.1657098
-3.9963345
-3.9492458
-4.2624892
-4.1705208
-4.158669
-4.0315842
-3.3184157
-4.2808602
-3.8750366
-3.6501405
-3.8815061
-1.5924427
-3.8395161
-4.2242976
-4.2799481
-4.9183625
-3.4923925
-3.6132308
-4.6898653
-4.2485284
-4.2495083
-4.2030059
-3.5173632
-3.9351732
-3.6536868
-3.9198212
-3.5137279
-3.8712596
-4.0483947
-4.5923974
-3.4209049
-4.4909686
-4.2945336
-4.546205
-2.9233008
-1.5427624
-4.5713903
-4.653374
-4.0841602
-3.5261836
-4.1141755
-3.9007162
-3.8388747
-3.8066938
-4.0897341
-4.1924379
-4.2797109
-3.4818943
-3.9101289
-4.5522924
-4.2044277
-4.3187563
-3.7718063
-4.9280685
-3.7104385
-3.2500534
-3.7429673
-4.0020772
-3.6679162
-3.0201926
-2.7450279
-4.3987486
-4.254943
-3.4217084
-4.9734373
-4.2772606
-3.8054783
-4.1124452
-4.5262212
-3.8080959
-4.4492395
-4.6000699
-3.753763
-3.6901215
-4.307998
-4.5818768
-4.5244125
-3.2280407
-4.5141254
-3.2675072
-4.3211458
-3.809175
-3.9390757
-2.2893033
-3.8885589
-4.4270139
-4.2817276
-3.8923183
-4.3232663
-3.9155659
-3.6504731
-4.054178
-3.8360757
-4.4197803
-3.4203714
-3.9803067
-3.8829561
-3.9217798
-4.1458031
-2.2070507
-4.1328232
-4.2821244
-4.0472087
-3.8581931
-2.1146293
-3.6052675
-3.7611755
-3.6955836
-3.407187
-3.8962183
-4.3431694
-4.362354
-3.8520094
-3.9862839
-3.771012
-3.4938862
-4.5129265
-4.0358498
-2.9371713
-3.8454062
-4.0534726
-4.1305323
-3.9326384
-4.3792271
-4.505136
-3.8739103
-3.7996887
-3.3370387
-3.9477076
-4.1695902
-4.2582173
-4.3356056
-4.0922888
-3.8017339
-3.7430372
-3.72748
-3.8864477
-3.7922829
-4.1701118
-3.7592041
-0.15075039
-4.1714298
-3.9557454
-3.8271505
-4.8078655
-4.5218637
-3.6726815
-3.7581265
-4.004915
-4.5848755
-4.1579091
-3.8904984
-4.0089354
-3.9000756
-3.8034369
-3.5312112
-4.1515219
-3.0903778
-4.1043622
-3.4125165
-3.2469749
-4.0934758
-3.7800092
-4.6628698
-4.0500616
-4.4565657
-4.0961664
-3.7304683
-3.8120226
-3.776614
-4.1098574
-2.9776794
-3.5226908
-4.3836716
-4.3515496
-4.0994514
-4.2056382
-4.2347469
-2.7586274
-4.1527647
-5.1752281
-4.0280171
-4.3490077
-4.1734836
-3.8381646
-3.6623953
-4.3269503
-3.4663047
-3.4266887
-3.2143153
-3.3622594
-3.7035342
-2.9165371
-3.4381409
-4.1770585
-4.791807
-4.1535463
-3.8943859
-3.6240227
-3.5068239
-3.4832304
-4.043915
-4.2101
-4.0207904
-4.273132
-3.9584088
-4.3227621
-3.7499517
-4.0267141
-3.5318124
-4.3703897
-3.8923731
-3.5483934
-3.727038
-0.62688276
-3.768014
-3.6656914
-3.3269664
-3.797659
-3.0846092
-4.0830441
-3.9874125
-3.1128279
-3.6484329
-3.7951249
-3.7196846
-4.5495778
-3.7591255
-3.8869384
-3.2360745
-3.5542511
-3.1082848
-3.046829
-3.2343696
-2.5352661
-3.0485845
-3.4422016
-4.2559963
-3.9751435
-3.9979316
-4.1522236
-4.0493558
-3.3035629
-4.0498837
-3.9184696
-4.0794613
-3.8596065
-3.8681543
-3.6614113
-3.3506949
-3.7960403
-3.9839934
-1.8428837
-3.4541002
-4.0654285
-4.3665581
-3.7323895
-4.1103905
-3.7596899
-3.7171939
-3.6003007
-4.2771303
-3.8964998
-4.1435869
-3.3474194
-3.7630758
-3.7891297
-4.3013594
-4.2356107
-4.0042476
-4.0193838
-2.9007497
-3.7112888
-4.0921316
-3.7275183
-4.4421792
-3.7629383
-3.8032066
-4.1317897
-4.4448808
-3.8664093
-3.8486013
-4.2088054
-4.3271412
-3.7633388
-4.1561454
-4.1987923
-3.7429684
-3.672602
-4.2528999
-3.9862566
-4.2649797
-3.7279267
-3.4141988
-3.7729887
-3.6034203
-3.5266908
-3.941333
-3.951594
-4.0250664
-3.7072682
-2.0405471
-3.8546579
-4.1377193
-4.3160426
-4.4756923
-2.8064219
-4.1340061
-4.2700589
-3.916957
-4.2568183
-3.7440488
-3.8679527
-3.8999497
-3.8233594
-4.5949658
-3.819098
-4.0959681
-4.1418187
-3.1846655
-3.8311724
-3.5723123
-4.2602024
-4.2880728
-3.4900841
-4.058951
-4.112046
-4.0424035
-3.9949192
-4.3583327
-4.0067489
-3.9532284
-3.5945442
-3.9485325
-3.5431024
-4.1911172
-3.6832484
-4.2820385
-4.4250394
-4.1217309
-4.4269587
-4.3721824
-3.7271217
-3.6640891
-4.5234032
-3.8308147
-2.2479014
-4.7060046
-4.3881351
-3.7807987
-4.0699334
-3.4976669
-3.9386147
-2.4909508
-3.6998756
-3.4975984
-4.0657289
-3.5740561
-3.8465257
-3.0618366
-4.8265601
-4.4581924
-4.0676644
-4.162834
-3.9590281
-2.9029234
-2.9654493
-3.5844776
-3.3317624
-4.4396484
-3.9142213
-4.1338414
-4.3203339
-4.7692738
-3.0922131
-2.8612846
-4.4495893
-4.1915831
-3.3051675
-4.3816686
-3.4333549
-3.2967787
-3.5767006
-4.9041822
-4.5831489
-2.8165686
-2.3390839
-3.034354
-4.3591594
-4.3827369
-3.6730538
-4.7426388
-4.0444693
-3.9858711
-3.9110728
-3.3138703
-4.245554
-2.9954403
-3.7571352
-1.7849916
-4.0975508
-4.1684829
-4.0260602
-4.1799379
-4.3112378
-3.0885202
-4.0757637
-3.7990828
-4.0925381
-4.4711979
-4.0238135
-4.0210154
-3.6832329
-3.804044
-4.362934
-4.0022212
-4.0361007
-3.6474932
-3.3721811
-3.4435326
-3.825732
-3.5361031
-3.259145
-3.5580198
-3.6162308
-3.7852421
-4.2848673
-4.1793367
-3.5794626
-4.1515135
-3.3080242
-3.7219878
-3.809097
-4.3971062
-4.360647
-3.3589856
-3.7079429
-4.1870358
-3.5690873
-3.7477918
-4.1031017
-4.8317911
-3.82652
-4.1348774
-2.9361251
-3.9182498
-4.010593
-4.5815884
-3.8428526
-4.3691974
-3.4219141
-4.1762417
-4.3316114
-4.0576369
-4.429704
-3.5331174
-3.3742593
-4.0972778
-4.1213226
-3.4223515
-4.0500746
-4.9383539
-4.0526909
-3.9226901
-4.2604087
-4.1644997
-3.6858715
-3.54054
-3.9437011
-4.7875339
-2.1654999
-4.1785066
-4.5388092
-4.0471416
-4.0242884
-3.4413838
-3.0050471
-3.5851509
-4.2086111
-3.3447271
-3.6804464
-3.4425438
-3.9610108
-3.7327967
-4.1344673
-3.6278553
-4.0316465
-4.0559545
-4.2050262
-4.8466631
-4.2508118
-4.242015
-4.1222992
-3.8671296
-4.7042382
-4.0470052
-3.7373539
-3.8624214
-3.7723297
-4.4793192
-3.8232933
-4.2706034
-3.1785262
-3.771341
-3.1326141
-3.7655212
-3.3365553
-4.3528814
-4.575433
-3.3103616
-4.2914652
-4.1108287
-3.250015
-3.8343885
-4.1675802
-4.0913436
-3.2302568
-2.7000739
-3.6676761
-3.1878701
-3.935713
-3.774083
-3.7278511
-3.1969549
-3.637445
-4.5091919
-3.9676865
-3.7937639
-3.6186374
-4.6755679
-4.1471659
-3.5170157
-3.6930079
-4.1935556
-4.2486303
-3.9445485
-3.5382892
-3.9420419
-3.748069
-4.5129103
-4.1294625
-3.7536979
-5.0373799
-3.9499979
-4.3744985
-4.2052215
-4.0715582
-3.0323229
-4.5467147
-3.8925382
-4.2837797
-3.6702849
-4.0968514
-4.5781379
-4.1044527
-3.9162838
-3.2975183
-4.3415931
-4.2222112
-3.8985898
-1.3649911
-4.3498895
-3.1970911
-3.9610524
-3.3908301
-3.8647805
-3.870586
-4.1643643
-3.7291926
-3.4114479
-3.0373612
-4.3950143
-4.096497
-2.7925047
-4.556755
-4.5903854
-3.5194475
-4.184178
-3.6784877
-3.4304899
-3.6902029
-3.0453169
-3.8981375
-3.4612675
-3.947217
-4.1720528
-4.0587307
-3.79336
-3.8795279
-3.4470766
-3.8943194
-4.1507937
-3.700987
-3.1218444
-3.417635
-3.1968167
-4.5595297
-3.6208258
-4.0760935
-3.979795
-4.3754163
-3.7915466
-4.1613306
-3.5006888
-4.3173213
-3.392143
-3.7819257
-4.3008571
-4.038292
-4.3185214
-3.9563933
-3.5758151
-4.3275807
-3.642871
-3.6006625
-4.1471312
-4.5341432
-3.2416107
-3.2027094
-3.8631565
-3.9704362
-3.5034797
-3.9777741
-3.9598762
-3.6102907
-4.4069984
-4.0741677
-4.6019487
-4.647495
-4.3525868
-4.1131036
-3.8759562
-4.1688816
-4.0460138
-4.213822
-3.3522322
-3.5323161
-3.1199282
-4.1927968
-3.3925201
-4.1891609
-3.2084351
-4.8658327
-2.7114864
-4.4328678
-3.3226778
-3.3989206
-3.7903102
-4.3931005
-3.8348103
-3.5708945
-4.6075718
-3.8520504
-3.9180293
-4.0061786
-3.8517206
-4.293092
-3.7204873
-3.0848705
-3.3724476
-4.2955945
-4.1763409
-4.2508539
-4.5805095
-3.9940676
-3.6761353
-3.9151543
-4.532677
-4.0465708
-2.1920119
-4.5774186
-3.9855428
-4.2434288
-2.4998615
-4.0999676
-3.736798
-4.2724889
-3.8009201
-3.1665708
-3.6622844
-3.8163794
-3.5963634
-3.6377611
-4.1163455
-3.3889912
-3.7125343
-3.713701
-4.3571759
-3.7840404
-3.7454227
-4.1569182
-3.8895874
-3.9828258
-3.3204344
-4.2444785
-4.297812
-3.6469953
-3.9792915
-3.7026608
-3.3896008
-4.0432288
-3.8052219
-2.7079708
-3.6460996
-3.806129
-3.8726875
-3.921795
-4.1901503
-4.2015976
-3.6803319
-3.005595
-4.1417321
-3.9385401
-3.7857819
-3.6959951
-3.6310627
-3.6686415
-4.0678323
-3.6136757
-3.1199331
-3.8397466
-4.2627868
-3.8745105
-4.0538237
-3.2599662
-3.396958
-3.9341331
-3.8947776
-3.7350405
-3.5068338
-4.4217742
-3.9455483
-1.7764959
-3.9638502
-3.7837653
-3.387219
-3.7331001
-4.1185618
-4.2621326
-4.4816147
-4.1250172
-4.4063838
-3.1568293
-4.8928544
-4.9201728
-4.1525413
-3.395271
-4.3215094
-3.5327791
-4.13512
-3.6663887
-3.9941941
-3.7240193
-3.7587503
-0.43018554
-4.0332169
-3.7554713
-4.1665643
-4.1564508
-3.8067023
-4.2604156
-4.1726502
-3.593554
-4.5112585
-3.7572414
-3.7844857
-3.6095989
-4.0180482
-3.8313702
-4.6443963
-3.8605318
-4.0463579
-4.4606956
-3.9068988
-3.0975355
-4.5256082
0.31250004
-4.7152432
-3.5592326
-4.0497595
-4.2183032
-3.4014266
-3.7451449
-2.6638339
-4.1322585
-3.4570995
-3.5456585
-3.5372049
-3.8178244
-3.8506506
-3.8665995
-3.9874514
-3.7085377
-3.8176648
-3.4244871
-4.1191845
-3.7192113
-3.3006443
-4.0086569
-3.3548261
-3.3984072
-3.6392921
-4.5056837
-3.7579115
-4.1580876
-4.2068509
-4.1292206
-3.8571203
-4.223132
-4.8565717
-3.7501193
-3.9175421
-4.3710331
-4.2977479
-4.1283017
-4.0728977
-3.7814006
-3.169654
-3.5731497
-5.2592946
-4.0422212
-3.731834
-3.4305791
-3.7982858
-3.4499961
-3.9410639
-3.1330568
-3.907401
-3.8573578
-2.418638
-3.9160795
-3.1634495
-3.9020944
-4.207127
-2.8427432
-3.1825179
-3.7061762
-3.5922801
-4.6258279
-3.404062
-4.0454858
-3.831737
-3.8496058
-4.3883207
-4.2267118
-4.2533005
-3.8436882
-4.2143227
-3.5228987
-2.5288239
-4.2680321
-3.8173341
-4.2180905
-3.9072022
-3.7692077
-4.2256695
-3.4944484
-3.9903777
-4.012667
-4.3098729
-3.8908529
-3.6485507
-3.2626175
-4.7204637
-3.6374402
-4.0316416
-3.3951027
-3.9837639
-4.0586391
-4.1153167
-4.313241
-3.2620995
-3.8722277
-3.8277188
-4.2405203
-4.0198211
-2.4690579
-4.1622177
-2.80045
-3.1564722
-3.9289094
-0.90740693
-3.6006422
-4.773621
-3.5299598
-4.0628731
-4.1683405
-3.8792214
-3.1458883
-4.0847925
-4.2950798
-3.7840359
-3.7173198
-4.203826
-3.2072989
-4.2570187
-3.9218376
-3.8753343
-3.8511889
-4.036557
-4.1628176
-1.687233
-3.9336084
-3.8493064
-4.2046009
-4.7762543
-4.2516298
-2.9431594
-4.1815827
-3.6280579
-4.6450036
-5.060134
-4.683664
-4.3364168
-3.8081297
-3.6085901
-3.2056431
-4.2589655
-3.3006959
-4.3843676
-3.7766021
-3.2619803
-3.8879024
-3.8342215
-3.7829696
-3.3155623
-3.8946736
-3.8773602
-3.9169873
-3.524637
-4.1548213
-3.7284017
-4.2844315
-4.1221949
-3.823491
-3.356747
-4.2456252
-4.0531124
-4.2261159
-4.6972718
-3.3547094
-4.0269159
-3.8457658
-3.0029847
-3.9709756
-4.0851806
-3.8751043
-3.831855
-3.9027909
-4.0601672
-3.8651625
-3.0736007
-3.5518422
-3.1273722
-4.1275847
-4.0812114
-4.0572276
-4.1260296
-3.9769245
-4.959217
-4.0373095
-3.9380167
-3.4902052
-3.7895302
-4.0950931
-4.3621519
-3.9366748
-3.4213581
-3.5891928
-3.660958
-3.4942092
-4.0088297
-3.919268
-3.6277236
-3.9489312
-4.050076
-4.1998761
-3.8133084
-3.1680316
-4.0672886
-4.1413836
-4.6001565
-3.6581716
-4.180933
-2.9231641
-3.5784135
-4.1767932
-3.6867056
-3.9280043
-3.7940191
-3.6554035
-4.1090908
-3.3265321
-4.4359039
-4.0120278
-4.219304
-3.753211
-3.8727631
-1.8945019
-2.8088599
-4.4427207
-4.0418777
-3.6003959
-3.2309838
-3.9253166
-4.2445155
-3.9274611
-3.3909326
-3.7855009
-4.2925906
-4.322582
-3.7834589
-4.2004344
-4.4237099
-4.1051529
-4.3337515
-4.4329465
-3.8821711
-4.6757305
-3.3069222
-3.7674346
-3.8119257
-1.9099863
-4.1721151
-3.9554928
-3.3737621
-5.1609511
-3.7752356
-4.3144925
-3.9358181
-4.2976836
-3.3372879
-3.2053008
-3.8287393
-3.5680537
-4.3547906
-3.8726813
-3.6609188
-3.7929476
-4.1401836
-3.798214
-4.1565087
-3.9888505
-4.0017661
-4.1802407
-3.8739354
-4.124709
-3.6568208
-3.2947483
-3.665939
-3.9970469
-4.2252741
-3.8184559
-4.5466428
-4.2032832
-4.3987461
-4.0605884
-3.3497712
-2.9877965
-3.2456875
-3.6887134
-3.6002663
-4.352339
-4.0021416
-3.765435
-3.7564751
-3.6829052
-4.7559703
-2.6978426
-3.853984
-4.420439
-4.53735
-4.2719646
-4.2531563
-4.7585059
-3.8822091
-4.392429
-3.6355884
-4.1712842
-4.134358
-4.1531461
-4.018114
-5.1753806
-3.2116387
-4.7061027
-4.5352361
-4.473701
-4.4777726
-4.4778111
-3.8799834
-3.7866796
-0.74617957
-3.9663021
-4.0424173
-3.0333656
-3.93133
-4.0480125
-4.2636471
-3.8982146
-4.1703786
-3.8614212
-3.9425798
-4.3698098
-3.6311431
-4.3888725
-3.9856904
-3.3611327
-4.0593571
-3.9111597
-3.9432831
-3.6225434
-3.9942883
-3.8235957
-3.955065
-3.9986308
-3.807971
-3.8934074
-4.1834971
-4.0740368
-4.0929834
-3.8819207
-4.2122318
-4.2136404
-4.4643199
-3.243296
-4.2156462
-4.1260064
-4.050204
-4.6773464
-3.7303037
-3.9177218
-4.1135102
-3.8785148
-3.9642236
-4.5872662
-4.0515925
-3.6772808
-3.5905637
-3.2971732
-3.718991
-3.7057238
-3.0758655
-4.2390293
-3.9104932
-3.8388494
-4.0669789
-3.4432119
-3.7221137
-2.0284242
-4.0128174
-4.341077
-4.0575735
-3.2584055
-3.8817793
-3.9725483
-3.7610692
-4.0299747
-3.5944113
-4.5375002
-3.8587827
-3.7965368
-4.2152598
-3.6091621
-4.2292306
-4.298039
-3.3708583
-2.5315693
-3.688149
-3.444617
-4.3689516
-3.3732628
-3.7989396
-3.9118088
-4.0825859
-3.384668
-3.9825802
-4.0357882
-3.578428
-3.3914193
-4.0520971
-4.1113362
-3.7723357
-3.4269052
-4.1419828
-3.4153193
-3.9950575
-3.8838617
-4.2188644
-3.7880423
-3.8565073
-3.8731415
-4.2114926
-4.1877082
-3.4903536
-4.1957787
-2.1810275
-4.2547822
-4.0553995
-3.2609932
-4.0985883
-2.9713108
-4.0123577
-4.0282261
-4.4617619
-3.0658356
-4.172163
-4.2394132
-4.3822265
-3.9539305
-2.8226312
-3.8071562
-4.1215
-3.476988
-3.6115012
-3.9934436
-3.2169907
-4.0950323
-4.1173246
-4.5377293
-4.6182336
-4.2137041
-3.9309615
-2.8376152
-4.4016946
-4.0077105
-3.8732748
-4.3517693
-3.7514456
-4.0790656
-3.9465167
-3.6673844
-3.8658538
-4.2565585
-3.5247728
-3.062381
-3.9548704
-4.2077709
-3.3262773
-4.3068034
-3.6800104
-3.8543155
-3.6732127
-2.8768942
-4.2490191
-3.8156937
-4.0824567
-3.1554065
-3.9533221
-4.1559007
-3.9222456
-4.1139725
-3.816636
-4.0772494
-3.8635486
-4.6969299
-3.9259967
-4.0294502
-2.8563911
-3.6195891
-3.6082276
-4.4247859
-3.8744134
-3.4940852
-3.9272834
-4.3489773
-4.0335986
-3.811165
-5.1342656
-3.3762397
-3.8347531
-4.1927104
-3.9537399
-4.0883702
-4.1948309
-3.8101385
-4.6957146
-3.9698828
-4.4100989
-4.7076749
-3.964702
-4.3324969
-3.3596965
-3.6686518
-4.6317503
-4.1616542
-3.9323668
-3.8348077
-3.9536693
-4.0050413
-4.4369103
-4.6522489
-4.2423484
-3.8872661
-4.8606847
-4.1148841
-3.5500898
-4.8807547
-3.5249391
-3.8230065
-2.8860725
-3.651069
-1.9629876
-3.4673162
-4.9756669
-3.1047311
-4.4300827
-4.6612934
-3.9951648
-3.9482318
-3.3700951
-3.3287288
-3.4966309
-3.6742667
-4.2848404
-3.0617306
-4.2655135
-4.339705
-3.6305273
-3.7108639
-3.0790525
-3.2109756
-4.1438035
-4.2900366
-3.0974904
-3.5696439
-3.2564719
-3.6277841
-4.0133154
-4.0041261
-4.0352589
-3.3851264
-4.1037126
-4.1199467
-3.4068208
-3.6889371
-3.8223197
-4.1175799
-4.1059727
-4.2179424
-3.4254732
-4.1833965
-3.5964454
-3.766813
-4.0602542
-1.4638506
-3.9307811
-4.1799126
-3.6112117
-3.9342315
-4.12388
-4.5165229
-4.2473896
-3.9532833
-5.1087175
-4.0083249
-3.2765609
-4.218362
-3.8062223
-4.157427
-3.9396211
-3.3949846
-4.0148124
-4.2218413
-4.1440213
-4.5237728
-3.8299819
-3.8185223
-3.6266213
-3.099073
-4.0541263
-4.1308986
-3.7862491
-3.9225673
-4.0504475
-3.9925857
-3.6930437
-3.5138154
-3.6470506
-4.411786
-3.7020278
-3.5100601
-4.0993715
-4.0914188
-3.4173723
-3.6108582
-4.3317294
-4.3761145
-3.3302438
-4.2184934
-4.0556054
-3.5295173
-4.1104519
-3.3721575
-3.8019179
-3.4854697
-3.3069738
-3.6220018
-4.5263747
-3.4992911
-0.87875698
-4.1140253
-4.0032638
-4.6870288
-4.2979549
-4.1038403
-3.9518425
-4.3176347
-3.7900988
-4.0641507
-2.5320203
-1.1117317
-3.1990555
-3.9047208
-4.5173971
-2.6982333
-3.8750433
-4.4570287
-4.2120135
-5.0259647
-3.3919149
-3.7796072
-4.2781795
-4.1930766
-3.8901563
-4.1521495
-4.138416
-4.2261757
-3.5649568
-4.0257137
-4.2632846
-4.5346872
-3.6315241
-4.0449252
-4.4595589
-4.6080761
-3.9083919
-4.2639015
-3.523628
-3.8714817
-3.0979004
-4.2133786
-4.350894
-4.2703545
-4.0751892
-4.3382548
-4.15762
-3.6581954
-3.788434
-3.5152879
-3.1759876
-3.8858828
-2.9401649
-3.9231579
-4.1947349
-0.68554041
-4.2627541
-4.4632309
-4.2076171
-4.2591772
-3.8446427
-2.9254531
-3.968148
-3.7311933
-3.9917692
-0.31355577
-4.2494196
-4.1306324
-4.1511775
-4.2062211
-3.8800345
-4.1017436
-4.2009029
-3.9194583
-4.0640317
-4.4546822
-4.1905091
-4.0429514
-4.6205704
-3.0280796
-3.641786
-3.6944623
-4.2036106
-3.8915373
-4.0214968
-3.6928435
-3.6948672
-4.1487632
-3.9741827
-3.8667197
-4.4681102
-3.6023994
-4.1076502
-4.1733004
-3.5977331
-3.4121242
-4.1062216
-3.9285003
-3.7016902
-4.4407751
-4.0113925
-3.4739874
-4.6809786
-2.9720628
-4.4442355
-4.1575913
-4.2217974
-4.3524739
-4.2432004
-3.8851354
-3.8271647
-0.22431371
-4.6336582
-2.9353825
-4.3011615
-3.7847346
-3.9925487
-4.3565613
-4.0583777
-4.0262412
-4.1934421
-3.1814632
-4.3497837
-3.1472532
-3.3248159
-3.7553827
-4.9101761
-4.178982
-3.9005637
-4.2654835
-3.5427482
-3.5225026
-4.0127212
-3.9311906
-3.3587684
-3.8188017
-3.7494229
-4.1960121
-3.85385
-3.5273514
-3.8581676
-4.7251297
-3.511165
-4.6218647
-3.9379011
-3.4948183
-4.0322301
-4.0837632
-4.3452038
-4.4478427
-3.8647056
-3.8576036
-4.1297841
-3.6292579
-4.0925647
-3.8656118
-3.8666622
-3.9013633
-4.6913648
-3.8911023
-4.001045
-4.8425582
-4.402223
-4.2216368
-4.3543806
-3.7834321
-3.926485
-4.3315138
-3.9761889
-4.3854376
-3.9646831
-3.4685376
-4.0516904
-4.139342
-3.3008717
-4.370805
-4.4523119
-4.0766255
-3.3332011
-4.3525562
-4.53563
-4.5719926
-3.6065115
-3.7491983
-4.2058981
-3.3227744
-4.2289509
-3.0105392
-3.8704783
-3.9458613
-3.8981487
-4.1097937
-4.2733293
-4.1782966
-3.5035985
-3.9414239
-4.111695
-3.8355806
-4.3074878
-3.6700154
-4.1863555
-3.9091506
-3.6625831
-4.517312
-3.7338203
-4.5507642
-3.9818278
-3.0885477
-4.09492
-4.3484055
-3.9036128
-3.7571094
-4.2516936
-3.6887308
-4.5371616
-3.8613453
-2.9335965
-3.4657453
0.56636601
-3.7673909
-4.3670602
-4.3965874
-4.6008749
-3.4736697
-3.9185776
-3.9157616
-3.7633828
-3.6548868
-3.6786403
-3.6823356
-4.0678384
-3.7681461
-3.1712624
-3.3138785
-3.4688977
-4.27711
-3.7624299
-4.0083579
-3.3263255
-3.6276101
-3.606814
-3.6521205
-3.907961
-3.7150005
-3.4455393
-3.4437892
-4.0895274
-4.2922127
-3.7689101
-4.1645794
-3.2387212
-3.5651763
-4.1403528
-3.0284218
-3.623724
-3.5743836
-4.2065694
-3.7636167
-4.6144232
-4.0528378
-2.7454507
-3.4392362
-3.0234781
-3.8261029
-4.1249382
-4.2485235
-3.6186774
-3.4570255
-3.9984934
-3.7532057
-4.2636172
-4.2182303
-3.6805913
-4.1706936
-4.2175172
-4.3520976
-4.0482325
-4.5421726
-3.4714654
-4.1642421
-3.8696567
-4.1949438
-2.477498
-4.2468045
-3.7280475
-4.7520233
-3.6777465
-3.2281144
-3.8124072
-3.5075478
-3.4514692
-4.3752618
-1.2916441
-4.2878029
-4.6214955
-4.0406183
-3.5889735
-3.9791115
-3.8768851
-4.2850058
-3.6855994
-3.7872207
-4.2940485
-3.5611006
-4.2541346
-4.4206461
-4.1276159
-3.5531244
-0.35177234
-3.4317657
-3.7129882
-3.2547528
-3.3865638
-4.0455625
-3.9094156
-3.6982645
-3.1042218
-3.3547907
-3.9111788
-3.4957079
-4.1375863
-3.6917503
-3.7029966
-3.4400604
-3.5873567
-4.0067472
-4.7596196
-4.3261853
-3.5715874
-3.9266194
-4.116842
-4.1856525
-3.7653232
-4.2514723
-3.7229295
-4.1572014
-3.7419505
-3.802291
-4.9413915
-3.0820643
-3.9273972
-2.4322834
-4.2429457
-4.2350003
-4.30447
-3.4708999
-3.9974412
-4.0020133
-3.1798379
-4.1499604
-4.5028715
-4.4532551
-4.2408876
-3.5677841
-4.3906829
-3.229788
-2.7841266
-3.4431198
-3.5700658
-3.4291478
-3.7543925
-3.0081292
-3.6231669
-3.7117442
-4.6122011
-3.623529
-4.0123787
-3.4344793
-4.0755869
-3.4038979
-4.3325426
-4.0452143
-4.5844792
-4.0794409
-4.1131475
-2.9389912
-4.3679885
-3.592692
-3.2718235
-3.976092
-4.5338995
-4.1049682
-3.3905526
-3.1120979
-4.2815862
-4.1909924
-3.4064047
-4.2392663
-4.2893354
-3.8202427
-4.0077889
-2.8578027
-3.7746307
-4.0510942
-3.8892996
-3.6885102
-2.8547096
-3.921098
-1.7900102
-3.8182154
-4.1369669
-4.1136144
-4.624616
-3.6754457
-2.6623956
-3.8485236
-2.015424
-4.3072316
-3.8703237
-4.5148384
-4.4264408
-4.2793801
-3.4833538
-3.7903096
-3.9888351
-3.4390815
-3.7005224
-3.1931311
-3.859988
-3.6110451
-3.3314421
-4.4333058
-3.8179131
-2.1246442
-3.9930344
-3.7503884
-3.8381537
-3.3684943
-3.8361569
-3.1287585
-4.2472344
-3.6078332
-3.5403336
-3.8780141
-4.3041204
-4.2638839
-4.2496583
-3.7569409
-3.8341248
-4.3089947
-4.0522516
-4.1070846
-4.299382
-4.3113439
-4.1523656
-3.7831633
-2.806789
-4.2458682
-4.1712319
-4.4859978
-4.2336638
-3.7986681
-2.5884071
-3.6870622
-3.3472603
-4.3281908
-2.9956288
-4.6065503
-3.4718281
-4.199801
-3.8959023
-4.3070942
-4.300319
-3.9214398
-3.7946852
-4.1102901
-3.9640208
-3.3662757
-4.2901649
-4.029922
-3.4856153
-2.4961799
-4.5424902
-3.8715367
-4.1002328
-3.5993736
-4.3538926
-3.9832987
-3.7922798
-4.1957421
-4.0373515
-4.5788597
-3.4834568
-3.6279622
-4.1290236
-3.719937
-3.766268
-5.1909356
-3.2626946
-4.301805
-3.5593937
-3.6658463
-3.4853757
-4.8320427
-4.0539635
-3.1460716
-3.8894831
-3.9120962
-3.9428243
-3.6572135
-4.1752567
-3.343213
-3.3417272
-4.6689536
-4.7502522
-3.9679542
-3.9871231
-4.913071
-4.1453429
-3.8973291
-3.848977
-3.5852422
-3.3551154
-3.8491619
-3.5910384
-4.529593
-4.1807071
-4.4044113
-3.1113222
-3.6057618
-3.8086432
-3.8807096
-4.1324556
-3.8662985
-3.9245443
-3.7854002
-4.0816999
-3.911941
-3.6823945
-2.3862308
-3.719682
-4.1303733
-3.7156295
-3.6876799
-2.8944715
-3.9379587
-3.4973205
-4.2643387
-4.1213559
-4.1172767
-3.4090005
-4.0993122
-4.0214329
-3.9494357
-3.9414055
-3.9863338
-4.0773769
-4.0201394
-3.7899554
-4.052776
-3.9212819
-3.3063518
-4.1479213
-4.3091149
-3.137895
-3.2799642
-3.9359692
-1.474274
-3.7314071
-4.7629532
-4.0334594
-3.8055833
-3.1595987
-4.1472109
-3.482676
-4.821816
-3.7737651
-3.7625654
-2.8343567
-3.5349443
-4.0744559
-3.8286169
-4.0410617
-2.5914533
-3.6953906
-4.3826947
-3.7786751
-4.2988094
-3.7157328
-3.7356013
-4.051939
-2.6350257
-3.8486809
-3.827359
-3.766353
-3.2106319
-3.864253
-3.0399729
-3.7638358
-3.3020976
-1.97017
-2.0667739
-2.3857468
-2.5549243
-2.1074814
-2.1846178
-2.0303092
-1.5653064
-2.0260583
-2.4160594
-2.1414135
-2.2719181
-1.6743403
-1.7090384
-2.7042362
-2.0655813
-1.818217
-1.6810355
-2.3239557
-2.4617894
-2.1911832
-1.2522074
-1.9526787
-2.7804658
-1.6367153
-2.5341474
-1.7251584
-1.8035691
-2.042717
-1.8630126
-1.8987699
-0.31575659
-1.7324658
-2.6998713
-1.8347377
0.29403332
-3.5021905
-1.8344435
-3.3165262
-2.7390758
-2.6304026
-2.6116855
-3.0666821
-2.7817422
-2.526174
-2.9148852
-2.48839
-3.1023365
-2.5689883
-2.9264948
-2.5025304
-2.6633438
-2.3694425
-2.8246452
-2.9373104
-3.0564359
-2.6181221
-3.9279535
-0.96366035
0.026052756
-3.1235968
-2.4854086
-2.7437665
-2.8053093
-2.2139788
-3.0049755
-2.904361
-3.3434746
-2.9165663
-3.5369023
-2.837363
-0.92272402
-2.9495601
-3.1910388
-2.3173992
-2.2462873
-2.1155539
-1.4936892
-3.099408
-2.817617
-2.2491896
-1.4155773
0.95729352
-0.74793029
0.92467933
-0.71937106
-2.1194596
-1.2495971
0.050875773
-0.45725186
-2.3886527
-2.2735279
-2.0826501
-2.4632788
-2.3465087
-2.266362
-3.0846614
-1.6563699
-2.2009811
-2.4357774
-1.822805
-0.33640327
-1.8176479
-2.3232544
-4.0787299
0.34091129
-2.9496421
-3.0833282
-2.8943813
-1.1506388
-3.0441291
-2.5715661
-2.8355027
-2.4197015
-2.4736886
-2.230827
-3.7407886
-3.1060744
-3.6248192
-3.5319219
-2.2626371
-2.4898819
-2.7104831
-3.6411525
0.32151129
-3.1501822
-2.6306643
-2.646597
-3.0132027
-2.7999421
-2.2471832
-3.2159336
-3.0281865
-2.3058559
-3.0348337
-3.189898
-3.1679141
-3.5536642
-3.0548965
-2.4900054
-3.102492
-2.9551
-3.1261584
-3.3395849
-2.709704
-2.8217449
-2.9100237
-2.6808201
-3.0392744
-3.1248761
-3.6252574
-3.3158211
-3.1459325
-2.7949671
-1.5646356
-2.4164408
-2.1454236
-2.5708873
-1.9105645
-2.1533229
-1.7252413
-2.2913008
-2.5329137
-1.9514701
-2.0819668
-1.8307294
-2.3681003
-1.2111967
-2.5218824
-2.5275518
-2.9249839
-1.8658695
-1.6344751
-1.6133638
-2.5731113
-2.410067
-2.045215
-3.6440746
-1.6690036
-2.3913885
-2.0758866
-1.7673906
-1.2101789
-2.3453215
-2.0378945
-1.8023584
-2.2840846
-1.0551087
0.43162541
-2.0779371
-2.246963
-1.6651376
-2.5921437
-1.8618555
-1.5969109
-2.1315601
-2.1743047
-1.7368288
-2.4992041
-1.8257146
-2.3590299
-2.1980855
-2.4823634
-1.4946625
0.68003708
-1.8440695
-2.2297578
-2.2181787
-2.7216699
-2.194137
-2.778266
-3.3431103
-2.9812615
-3.1083847
-2.5851325
-3.339133
-3.0111617
-2.7987323
-3.115072
-3.4637965
-2.9993656
-2.8814687
-3.1678508
-2.6220898
-4.0364662
-2.9427386
-3.0770037
-2.6126626
-3.7696099
-3.5976836
-2.7274731
-3.4560868
-2.2389858
-2.3309591
-1.9559936
-2.1314169
-2.2310074
-2.0081162
-2.562844
-1.9572795
-2.5365531
-2.4535138
-2.1584601
-2.0009948
-1.7492534
-2.8296391
-2.0011237
-2.1057499
-2.2795203
-2.3289502
-2.8531138
-3.217522
-1.4001843
-2.1901006
-2.6621001
-2.3964273
-2.1361357
-2.1299906
-1.8224792
-2.8903709
-1.7871555
-2.3672429
-2.4106752
-3.0804369
-0.7531751
0.20407969
-2.8186005
-2.7476744
-2.203398
-1.7425377
-2.7587469
-2.7593048
-1.9719608
-1.9224828
-2.9840046
-2.7553009
-2.6621053
-2.4219698
-3.0165053
-2.8962211
-2.9285233
-2.5478228
-2.8311695
-2.3972939
-2.6265688
-2.6533915
-2.9055955
-2.7817521
-3.1566673
-3.2838455
-3.1001924
-3.3013992
-3.266536
-2.1470615
-2.774666
-3.0155483
-3.3512526
-1.5771969
-3.1542202
-3.1324379
-1.1077138
-3.649039
1.2272797
-0.21143425
-3.8319554
0.20647864
-2.1457578
-1.6365121
-2.0854776
-3.2807653
-2.7211325
-2.5065137
-2.4159905
-2.7951358
-2.613101
-2.7946744
-2.953171
-2.6750198
-3.0782286
-2.5471376
-2.4519032
-2.9207574
-2.3450527
-2.8142485
-2.7058135
-2.2446502
-2.8498785
-2.5866657
-3.2265932
-2.7108048
-2.4638989
-2.7391817
-2.715027
-3.1773192
-2.519337
-2.8005982
-2.7283993
-2.7543835
-2.8700274
-2.8934166
-2.4878559
-2.9097397
-2.5486457
-1.9269084
-2.6180967
-0.90180372
-2.682434
-2.250621
-1.7347128
-3.2490527
-3.2949184
-2.5429666
-3.6904674
-2.9080056
-1.6751511
-2.2385479
-2.7519279
-2.5606702
-2.501599
-2.3798403
-2.494131
-3.3412248
-2.4195493
-1.4597339
-2.6311024
-3.0230427
-3.1492115
-2.5031007
-2.8932411
-2.7636021
-2.7353904
-2.5160031
-3.0416779
-2.4304507
-2.6666678
-2.3849433
-1.932679
-2.5443586
-2.9270154
-2.4083289
-2.369048
-2.5979065
-2.7844456
-2.8075284
-2.5167877
-2.4420254
-2.5465441
-2.829591
-2.6917985
-2.4676281
-2.7210054
-2.6887868
-1.1076131
-2.7653022
-2.4832114
-1.7324724
-2.3023178
-1.6454997
-1.9673027
-2.371369
-2.2222859
-1.524718
-0.7938133
-1.3874088
-2.4637133
-1.1797065
-0.58270477
-2.8170461
-2.454419
-2.5845862
-2.5444496
-2.5807988
-2.9477893
0.053099481
-2.9341873
-3.0659638
-3.068974
-2.637855
-2.6335327
-0.48654526
-2.5486328
-2.7325591
-3.0221581
-2.486197
-2.3090259
-2.0031385
-2.1100128
-2.417164
-1.5603299
-3.1567046
-1.8775676
-2.3836828
-2.2270008
-2.4829756
-2.7376673
-2.2252972
-1.354096
-2.3731744
-2.4645663
-2.2612924
-1.6915391
-3.3254752
-1.731241
-2.1803327
-1.4169405
-1.8148929
-3.3143827
-2.560271
-2.3780769
-2.6869506
-2.3754361
-2.7979038
-2.8567509
-2.2400749
-2.8105112
-2.6098095
-2.9617071
-2.6960281
-2.9813821
-1.486083
-2.9346244
-2.8516671
-1.4661923
-2.5212205
-1.7353266
-3.3083062
-1.7615888
-2.4488379
-2.4165847
-2.3760309
-2.3108663
-2.4655563
-2.6654376
-2.918481
-2.7050054
-3.1506046
-2.4636808
-2.3984118
-1.7403701
-2.4681313
-2.8842449
-2.9168051
-1.6057754
-1.3444717
-1.7042119
-1.4442836
-1.5533998
-1.1429621
-1.6137235
-2.0596451
-1.8118596
-2.1116668
-1.6241517
-2.7170995
-1.4225513
-1.7564563
-1.8242884
-1.470602
-1.541743
-1.5062712
-1.3523703
-2.7863111
-1.7753959
-1.9722822
-1.8727659
-2.1852488
-2.3167115
-1.6297731
-1.689427
-1.5126239
-1.6165982
-1.5070632
-1.8660438
-1.4857473
-1.7867349
-2.6507131
-1.5466857
-2.4461329
-1.825967
-2.1526268
-2.8439634
-1.5668794
-1.7140666
-2.5158219
-2.1652527
-0.88653593
-1.5431703
-2.5480181
-1.7262984
-2.9180571
-0.058003627
-2.845145
-2.8738425
-2.6500068
-1.8252409
-1.877258
-1.8173445
-1.916565
-1.8929586
-2.4708057
-2.4196542
-2.2012549
-1.4104857
-2.4357716
-2.5714326
-0.82605374
-1.0086097
0.11877194
-2.6419056
-4.1443586
-2.436794
-2.5768874
-2.2172857
-2.6959623
-3.9520955
-2.3295752
-2.5369171
-2.6445832
-2.5611717
-2.5046204
-1.8827203
-2.7986957
-2.4874924
-2.1084173
-2.4292814
-2.1196325
-2.8875918
-2.2657451
-3.0149048
-2.5831415
-2.39753
-2.833462
-2.7977957
-2.7575396
-2.1335149
-2.4593665
-2.4942071
-2.2747005
-2.9417968
-2.7093728
-2.7818812
-2.8514284
-2.4983009
-2.9471879
-3.0255302
-3.1462484
-2.8640706
-3.0507919
-2.7928722
-3.2655314
-3.1748674
-3.1034194
-3.0466836
-2.5225979
-2.9025548
-1.066741
-2.1355205
-2.1887108
-2.0767462
-2.3376483
-2.0525873
-2.5428437
-1.1137475
-3.4926644
-2.3259128
-2.3919309
-2.5342635
-2.3336578
-2.3773537
-2.0678787
-1.5687378
-1.9550105
-1.8013349
-2.1249252
-1.2352091
-1.9562001
-1.9105353
-2.2000791
-2.4103189
-2.3305043
-2.0651678
-1.7751517
-2.1147974
0.73177289
0.10487625
-2.8807586
-2.6131998
-2.7762052
-2.8788756
-3.0861086
-2.7424319
-2.9022661
-2.8697216
-2.7501521
-2.8155268
-2.4836715
-3.2543821
-2.6752628
-1.4946971
-1.4784014
-1.0321283
-2.6465227
-2.894218
-3.0791703
-2.9629733
-2.9682239
-2.7791106
-3.1051668
-2.9502688
-3.1099008
-2.8420128
-1.9703247
-2.945193
-2.6065718
-3.2496016
-2.5636761
-2.9396687
-3.0513594
-2.4754885
-2.494409
-2.0103009
-2.560552
-2.6395803
-3.6508058
-3.9294294
-2.9500572
-2.6152553
-2.7808363
-2.7553151
-3.1790629
-2.2133282
-3.0866599
-3.3312878
-3.3057643
-3.3528019
-3.243251
-3.088683
-2.9752503
-3.167397
-2.0903544
-3.0083201
-3.3693189
-2.9149532
-3.260931
-3.4291731
-3.9663334
-2.7049012
-3.4510348
-2.5723684
-3.1129798
-2.7826325
-2.8384917
-1.7645916
-3.3870734
-3.1044216
-0.64246009
0.81718213
-4.3082497
-3.9203711
-1.0793919
-0.33381881
-2.0177037
-2.3161521
-2.7086463
-2.2877385
-0.5289179
-2.0824254
-1.7383425
-1.7820083
-2.4238504
-1.6688914
-1.9897716
-2.3036317
-1.9449752
-2.5264465
-1.8660091
-1.922414
-2.563502
-0.95456058
-0.045397595
0.3243155
1.1634673
0.5482594
-3.2347233
-2.7204324
0.093745965
2.1470148
-0.88550586
0.87579068
-0.48928509
-3.1528176
-1.9472098
-3.1932268
-3.0190061
-2.2473284
-2.0802612
-3.0889152
-3.0962136
-2.7414867
-1.2347739
0.64977766
-1.2717211
-3.0929225
-2.2016855
-2.9513123
-2.1025941
-2.7032133
-2.2780339
-2.9013296
-2.7809993
-3.1172484
-2.7870826
-2.5549595
-3.3781581
-2.9870875
-3.06236
-2.7765999
-2.7371638
-2.3321078
-3.1201738
-2.317995
-2.7378675
-2.6417875
-2.6731636
-2.80429
-3.36451
-2.5929244
-3.592152
0.4136301
-2.6174625
-2.7396862
-2.6830023
-2.646692
-2.4615787
-2.6820251
-2.7564621
-1.7140388
-0.094228915
-1.9378676
-2.1688291
-2.3818172
-2.2569534
-2.8385864
-3.6215704
-3.2877397
-3.4785335
-0.00928814
-0.77466082
-0.11283556
-0.12607371
-2.9974321
-1.5127012
-3.8500018
-4.2282944
1.2591062
-1.1438002
-3.6984708
1.0099218
-2.5810962
-2.100393
-2.2569013
-3.0475821
-3.060713
-2.9118434
-1.5495536
-3.9266693
-2.690009
-3.3809286
-3.041241
-3.4622312
-3.2656759
-2.5834586
-3.0859227
-4.379257
-2.133612
-3.6916038
-2.222426
-2.184735
-2.3200002
-2.6548674
-2.486266
-2.2891367
-1.8188435
-1.9108782
-1.5967859
-2.1097039
-2.0872702
-1.5862578
-2.4131025
-1.9632764
-1.5209398
-1.9181819
-2.148586
-1.5358397
-1.6150973
-1.9294784
-2.0046626
-2.0534902
-1.5837364
-2.4201799
-1.755737
-2.0288638
-1.950039
-2.6192155
-1.3493686
-2.078044
-1.70911
-3.1011431
0.28425342
-2.5995015
-3.4340228
-2.4802755
-2.4124531
-2.8941452
-1.9846245
-1.8342931
-0.64983227
-2.812393
-2.6966915
-1.8864639
-2.6294363
-2.1163631
-2.382528
-2.7753307
-2.6181469
-2.5082338
-2.9734555
-2.6920348
-2.4769656
-2.744235
-2.5310186
-3.0115182
-2.5917852
-2.9798557
-2.3881027
-2.4631409
-2.4964686
-3.2820394
-2.5965754
-2.8509515
-3.3780395
-2.732182
-2.2428135
-2.8655545
-3.3290799
-3.2813574
-3.0998075
-3.2253306
-2.3909626
-2.9247802
-3.407032
-2.6614934
-3.0283295
-2.8873696
-3.00759
-2.4073884
-2.881165
-3.1738535
-2.7211582
-3.076918
-3.0254768
-2.5774604
-3.1315536
-3.0587239
-2.9002987
-2.8896001
-2.4702892
-3.304402
-2.4012113
-2.4824874
-1.6251554
-2.4171888
-3.2934018
-3.4916454
-2.831733
-2.6020244
-2.6113939
-3.0906313
-3.4039254
-1.9739349
-1.8247615
-2.3949614
-3.2346037
-2.302488
-2.8490755
-2.7858774
-3.0339855
-3.1754223
-3.17858
-2.1096125
-3.177333
-2.9599914
-3.1670424
-2.2552533
-3.2814659
-1.1372917
-2.7771976
-3.3891922
-3.2833917
-3.456362
-2.5666939
-3.0510447
-2.6500239
-2.8506279
-2.961636
-3.5085575
-3.2801202
-2.701894
-3.0077128
-3.0115226
-2.5812909
-2.970049
-2.641657
-2.8429976
-3.2864831
-2.6072871
-2.5146483
-3.2473804
-3.182588
-3.3516737
-3.3048626
-3.4178596
-3.0143896
-3.3931794
-3.4931077
-3.0749661
-3.3255201
-3.7320969
-1.7121032
-2.8760657
-3.2286727
-1.8086088
-3.094468
-2.1691283
-2.4365448
1.3204987
-3.0236874
-2.9893859
-2.8153606
-2.8913136
-2.1530216
-2.5779217
-3.0003299
-2.3637926
-2.6420857
-1.4066605
-2.4299855
-2.6541021
-2.5293342
-1.6879475
-2.7251934
-2.4075646
-1.6796466
-2.7761861
-1.8420141
-1.9856971
-2.7548588
-2.9264967
-2.3268448
-2.2333045
-3.7771735
-3.1862535
-2.8276389
-2.9616985
-2.5658271
-3.3852831
-3.1225958
-2.8386073
-2.7792796
-3.0769324
-3.0320543
-2.6685094
-3.0068142
-0.80071006
-2.2485036
-1.7186764
-1.6550412
-1.6780264
-1.7164401
-1.8701068
-1.2546506
-1.8409697
-2.66709
-3.0017913
-3.3398871
-2.911471
-3.4238839
-2.3710093
-2.493852
-3.1120282
-3.0113972
-3.0662844
-3.1218881
-3.5468685
-3.2104494
-3.570682
-1.5596726
-2.9410303
-3.154947
-2.9211171
-3.1132448
-1.8824474
-1.9832803
-2.7666558
-2.620877
-2.642246
-2.2613976
-3.0055511
-2.8986327
-2.1886631
-3.5119114
-3.0564707
-2.881344
-2.5021648
-2.7803106
-3.0411099
-2.6685515
-3.01497
-3.5200497
-2.9242699
-1.1288862
-3.0610938
-2.846996
-2.8042664
-2.759475
-2.2831356
-2.7516877
-2.4960417
-2.8731463
-2.7624845
-0.6912736
-1.9704072
-1.7425802
-1.9212546
-2.3030999
-1.8177427
-1.728392
-1.773675
-1.5876881
-1.8000368
-2.150395
-2.2064679
-2.6080715
-1.9963998
-2.3090979
-0.97741766
-2.193691
-2.4517236
-1.1767822
-1.7312434
-1.4256947
-1.3182225
-1.9894582
-2.2917064
-2.2477368
-1.5801102
-2.0611637
-1.8286638
-1.8134984
-1.5468958
-1.4924593
-1.6447389
-1.7681325
-1.7438815
-1.1593915
-2.3492459
-1.2522629
-1.2650812
-3.073938
-1.5008989
-1.9793975
-1.3797224
-2.4705237
-1.5121827
-2.0754932
-2.3432536
-1.1256135
-1.2585953
-0.75600783
-2.2993241
-1.8598043
-2.8693186
-2.0987145
-1.6083357
-1.6329407
-2.1269815
-0.87824045
-2.4151285
-2.3324727
-2.7166142
-2.7975127
-2.061561
-1.9066068
-2.115098
-1.7860102
-1.3936261
-1.6206853
-2.3053088
-2.568229
-2.4924437
-2.708232
-1.6467966
-1.9730667
-2.2998575
-2.1850802
-2.8708271
-2.6403359
-3.1825087
-2.0384201
-2.1739992
-2.3871863
-2.2919306
-2.2026462
-3.5851584
-2.3157957
-2.2796554
-2.9193908
-1.0412221
-2.9094653
-2.0492451
-2.7830295
-2.8336965
-2.2976465
-2.3100564
-2.461852
-3.0419604
-1.7720972
-1.9953683
-2.8548452
-3.7301436
-3.3847104
-2.552502
-2.1037243
-2.2890664
-1.7748312
-0.93949101
-2.0906839
-2.3579076
-1.8805851
-3.4747472
-1.0605814
-2.5255176
-2.813685
-1.4842929
-2.1960995
-2.0977066
-2.87243
-2.8841236
-2.4069077
-1.9592589
-2.553625
-2.8283547
-2.7382771
-2.0699976
-2.8646423
-2.4199088
-1.5452296
-2.4500995
-3.292739
-2.1840028
-1.9667252
-3.0602702
-3.0551933
-2.6111985
-2.6359669
-2.5789092
-2.9024219
-2.8269164
-3.228432
-2.7732929
-2.1587666
-2.9566766
-3.0600093
-1.7656804
-2.1353533
-2.7907645
-2.6945353
-2.7628845
-3.0193854
-2.8509945
-2.7134339
-2.7298621
-3.2228974
-2.0814191
-2.936914
-2.3079248
-3.0843157
-3.0600391
-2.2670551
-3.1380481
-1.6674906
-3.1602817
-2.0446594
-3.1138576
-2.9525543
-2.5233059
-3.2383302
-3.1892128
-3.6463713
-2.0790647
-2.1744911
-2.1708754
-3.1990449
-2.4873695
-2.6825036
-2.5123876
-3.2089226
-3.0418963
-2.9559088
-3.1775176
-1.1020319
-2.0741428
-2.637204
-1.4968195
-1.8457634
-1.8730239
-2.3786088
-2.5151108
-2.0200833
-1.5277292
-2.4765929
-2.5321363
-2.4689603
-2.1502426
-2.4780921
-1.9644556
-2.5307425
-2.4532876
-2.5080224
-2.3216341
-2.3369857
-2.345717
-1.2405021
-2.148087
-2.2288565
-2.724532
-1.8312487
-2.7240493
-2.786488
-2.8198071
-2.504816
-2.4144001
-1.9719898
-1.7131879
-2.8623969
-2.8245144
-2.1183978
-2.8644885
-2.1489527
-1.8303223
-2.8738656
-2.0896701
-2.5049001
-2.9978505
-3.801315
-2.1539886
-2.9414611
-2.765391
-3.033043
-2.9473605
-2.9249664
-2.4012697
-2.7323203
-2.0277483
-3.4250207
-2.3156185
-2.9377793
-3.2489724
-2.9596738
-2.6022529
-2.6651101
-1.9039048
-2.4975594
-1.3817763
-2.9922522
-2.6389477
-2.3606996
-2.7481827
-2.7221905
-2.9198776
-2.1821007
-2.0186694
-3.4285195
-2.2186196
-2.561336
-2.5308137
-2.1057342
-2.3083776
-2.5592822
-2.2919674
-2.879899
-2.8824755
-2.3560971
-2.7111253
-2.0951265
-2.823736
-2.241126
-2.1001224
-1.7969422
-2.6106859
-2.1882103
-2.6530084
-2.9960753
-2.5090765
-2.2962839
-2.7086968
-1.9986165
-2.6438866
-2.3173392
-2.7135148
-2.743221
-2.8142353
-2.9489468
-2.5664218
-1.8240916
-2.5146237
-2.5606885
-2.5638089
-2.7602317
-2.1512277
-2.8085175
-3.0877569
-3.0820412
-2.9463233
-2.7715439
-3.1480958
-0.77447649
-2.44733
-2.1395821
-2.7028484
-2.5531219
-3.0197849
-3.1545615
-2.9295514
-2.7514242
-2.4991743
-2.8990442
-2.2319244
-1.9753158
-2.4281429
-2.9444309
-3.3915283
-2.7611329
-3.1091853
-3.3928372
-2.3567459
-3.6083383
-2.1092524
-2.2390861
-1.9480093
-2.2728201
-2.6094216
-2.7563191
-2.7866088
-2.5096426
-2.406238
-3.1438982
-2.4679651
-1.9192224
-2.3773082
-2.5052657
-3.1362306
-2.5342153
-1.9459108
-1.2808147
-0.98611728
-0.50001615
-0.88046184
-0.442606
-0.96844815
-0.26373422
-0.60937914
-0.16876791
-1.100535
-0.69357346
-0.62807574
-1.1934595
-1.02242
-0.62753402
-1.5431223
-1.0750217
-0.054989925
-0.42526619
-0.78851277
-0.21239658
-0.52957846
-1.0163286
-0.65502786
-0.76010141
-0.41788545
-0.59327087
-1.1750907
-0.476147
-0.77582134
-1.0026463
-0.21495369
-0.86614455
-0.49353696
-0.62980329
-1.0829725
-0.59484481
-0.55296086
-0.92778586
-0.55582874
-0.19742802
-0.64057264
0.44194564
-0.78236817
-0.61102021
-1.1404601
-0.70939746
-0.31459167
-0.7898119
0.23164109
0.47920736
0.064622615
-0.54832433
0.21823563
-0.57085722
-0.89932618
0.19576543
-0.8818793
-0.68951129
-0.66760505
-0.76406807
-0.99114154
-0.7586416
-1.021141
-0.49406537
-0.38921972
-1.2453841
-0.75067263
-1.3511321
-0.22615222
-0.92390555
-0.23531392
-0.62253043
-0.15701284
-0.17705833
-0.41327323
0.18542642
-2.0709525
-0.004763025
-0.41225109
0.035245879
-0.16270964
-0.573094
-0.211489
-1.1693309
0.57373117
-1.2618888
-0.63062544
-0.77016756
-0.51816668
-0.89094284
-0.78714643
-0.17610699
-1.1944262
-1.9391122
-0.87513144
-1.3372528
-1.2276831
-1.2570368
-1.0395162
-0.7635849
-0.73703605
-0.67954225
-1.4084387
-1.223536
-0.54569822
-1.3457372
-0.87149953
-0.7907467
-0.80386054
0.25285749
-0.70013269
-1.7163611
-0.58599238
-1.2872884
-1.2009638
-0.34137227
-0.75434238
-0.7530864
-0.80501935
-1.549774
-1.0907299
-1.0344506
-0.68990977
-1.1794095
0.49785918
-0.44869513
-1.1490528
0.22056885
-0.3705022
-0.85689988
-0.72211312
-0.37315392
-0.85257166
0.093025861
-1.1339064
-0.74720428
0.088150483
-1.2818819
-1.2623103
-1.1666466
-1.0983125
-0.69902338
-1.089337
-1.0561022
-1.3455239
-0.31388944
-0.40344655
-1.3311511
0.34886849
-1.3800179
-0.97784707
-0.80832283
-0.98299549
-0.62770618
-0.99978609
-0.09952859
-0.64992579
-1.4859458
-1.7344367
-2.0581505
-2.1260212
-2.8592151
-1.8101708
-1.6621416
-2.7212964
-2.8602803
-2.6846342
-2.121613
-2.1051167
-2.5187512
-2.8197895
-2.3073945
-3.0963547
-2.3633015
-2.3034145
-3.0719526
-2.3800189
-3.4004073
-2.7020193
-2.6829612
-2.8827126
-3.0569226
-2.4583652
-2.6754596
-0.99850622
-0.96470256
-0.88726624
-2.6271692
-2.6185903
-2.7990774
-2.7432907
-2.6932035
-2.5615353
-2.2361814
-1.9364576
-3.2523212
-1.7750972
-2.4084758
-2.4808265
-4.0631013
-2.6771378
-2.2867476
-1.9542083
-2.649042
-2.5838585
-2.7207891
-2.8340818
-2.0884929
-0.95655086
-2.7275558
-2.7458421
-2.9044219
-2.4225531
-2.9779729
-2.8225777
-2.781987
-2.9878181
-2.5872264
-2.3961366
-2.8484196
-2.5174169
-2.3708637
-2.7880938
-2.4805539
-2.8269569
-2.6390417
-2.8557438
-1.5887685
-2.6006726
-2.9212131
-3.003115
-3.0380795
-2.9404142
-2.9303365
-2.0346892
-1.9302256
-0.92149992
-1.6000067
-3.0058325
-2.7814313
-3.0380114
-3.1775376
-2.7657912
-1.9335701
-2.4905471
-2.6444258
-2.9107485
-1.3428655
-0.25337166
-0.3088181
-0.46595628
-0.84611189
-0.81904714
-0.14269548
-0.96620459
-0.013322155
-0.7858176
-0.24641234
-0.065140261
-0.39188942
-0.95322056
-0.33820663
-0.81826358
-0.41689123
-0.27750283
-0.25849268
-0.055669981
-0.89043161
-0.82598707
-0.11811076
-0.26337989
-0.49700494
-0.9208683
-0.87587541
-1.5450638
-1.5063404
-0.60967699
-0.80609697
-0.88568561
0.21102483
-1.1306961
-0.52742139
-1.02979
-0.58905289
-0.98861447
0.022529128
-1.1789843
-0.88149541
-0.24836132
-0.35668386
-0.040176709
-0.46581943
-0.74833121
-0.67376345
-0.18676297
-0.84133397
-1.7122838
-1.1375143
-0.81950442
-0.26386079
-2.8354497
-3.435119
-4.3701146
0.96211277
-1.7470072
-0.16680714
-0.27982751
-0.17756442
-2.7202566
-2.6904833
-2.8568487
-1.9119677
-2.4340863
-2.3744788
-2.6895359
-0.93837846
-1.6456075
-1.6494828
-1.8499079
-1.4176394
-1.8538587
-2.2672955
-1.5799939
-1.3680024
-1.4017924
-1.5728207
-4.2161442
-1.2396858
-0.51997277
-4.0542971
-1.5205549
-2.1421359
-1.1797119
-1.1293687
-1.6607267
-1.6461025
-1.1744533
-1.0321576
-1.4177205
-1.7117155
-1.3745771
-1.5326121
-2.039048
-1.8732859
-1.3414105
-1.5365846
-2.9991451
-1.2618049
-1.331262
-1.7596489
-0.21992429
-0.13744159
0.25012607
-0.94100657
-2.2723653
-2.0201231
-2.3318501
-1.4868328
-2.0820807
-1.9854124
-2.7016616
-3.2433793
-1.9777841
-2.9004938
-1.9702932
-2.5557387
-2.2192875
-3.4285009
-2.4326896
-2.734491
-1.9544769
-2.195511
-2.5121476
-2.4997916
-1.8702948
-2.351932
-3.319101
-2.7174905
-3.2858875
-2.7887273
-2.3792086
-3.3248878
-3.3693589
-1.7909154
-3.2377489
-2.8547799
-3.4342225
-3.1452303
-3.6681322
-3.4982267
-4.1307713
-4.7921358
-4.0676314
-4.0500457
-3.5233081
-3.2548498
-3.147487
-2.4787048
-2.4098867
-2.9336176
-1.8891628
-2.5169897
-3.1723123
-3.5144342
-3.1925265
-3.4671336
-3.6439926
-3.1542472
-3.42849
-3.4582074
-2.8906867
-2.7273239
-2.4939277
-2.9611496
-2.9286148
-3.1833606
-2.8080845
-2.6635766
-1.875659
-1.672694
-1.8150462
-1.7968563
-1.7433968
-1.6803801
-1.6338431
-2.8745588
-0.83499771
-1.3840017
-1.6417628
-0.98254053
-1.0414678
-1.5200933
-2.8132684
-1.2316945
-2.305245
-1.9048681
-1.7674905
-3.0779963
-2.3143729
-3.3080967
-2.5070608
-3.0908848
-1.9829403
-2.9467078
-1.7984144
-1.3143598
-1.564108
-1.8855877
-0.49216712
-1.4153597
-1.5773564
-2.5754396
-1.8781733
-2.7300004
-1.8627926
-2.5315555
-3.5285426
-2.6997282
-2.6301788
-3.4593901
-2.8585486
-2.6261452
-3.5135606
-3.1678491
-3.9291494
-3.065141
