-2.8272038
-3.9968398
-2.5934502
-1.9144071
-0.87425189
-3.57455
-2.7666349
-1.5073974
-1.7534903
-1.7003675
-3.1903071
-2.3367567
-3.2593996
2.0878442
-2.9212433
-2.6824878
-1.1069099
-2.4495095
-0.10192395
2.036719
-3.3530235
-0.54876161
-3.2036327
-2.8897248
-2.2725454
0.66577827
-2.3030416
0.92006083
-5.1176214
-3.4141412
-0.27819632
-1.9628833
-4.182035
-1.4969218
-0.7129771
-1.7968885
-1.4633151
-2.2065865
-2.6269766
0.36621607
-0.1418624
-1.0885841
-1.8556681
-1.4862776
-1.4921667
-3.6641543
-3.0505616
-1.904508
-0.61504694
-2.0008649
-3.2861576
-3.4690114
-3.0182942
-2.2895413
-3.0086447
-2.4362805
-2.8921096
-2.9627514
-3.8051477
-3.3997563
-1.7844796
-3.974634
-4.1514645
-3.1055562
-2.6345683
-0.83920352
-4.1482687
-1.2550563
-2.5597673
-4.6485875
-2.5211165
-3.5163341
0.031393962
0.37744734
-1.4143843
0.32032591
0.23147514
-3.4351675
-1.6092852
-2.4959718
-2.3249589
-3.0360628
-2.2894919
0.34081385
1.8251657
-3.1672912
-2.1178863
-2.843215
-2.6953161
-2.739768
-3.0752273
-2.5699906
-1.0226406
-2.6118745
-2.1808877
-3.4270367
-2.7596141
0.48354338
-3.2857246
-2.3710604
-1.0931429
-3.3865702
-2.2209282
-2.416437
-3.1608662
-2.8297247
-2.3295333
-2.7234793
-4.3580581
-2.5400592
-2.0273012
-4.1683676
-3.7824631
-0.75400452
-1.6082489
-2.3438972
-1.0990084
1.212097
-3.4753501
-4.1222603
-3.5348764
1.6731226
-1.7253563
-2.1008794
-0.043893207
-2.3468404
-2.0084
-3.586584
-0.3846709
-2.5620211
1.6132621
-2.4715876
-2.6475002
-3.9544183
-2.032233
-3.153214
-1.6036925
-3.9156149
-0.93261328
0.44063656
-3.7411147
-3.9478308
-1.1443092
-2.7500664
-1.6502063
-1.1569459
-1.7086942
-1.0462221
-3.181191
-1.8879547
0.75493006
-4.2202108
-3.7890203
-3.8769665
-2.8145433
-0.19329843
-2.560839
-4.199997
-3.1991943
-2.6998221
-1.4380945
-2.6110668
-3.7942955
-0.20744396
-2.3257702
-1.9488039
-3.5711742
-1.4606384
-2.2231386
0.37092263
-0.85995172
-1.3224697
-1.2831036
-2.4474781
0.11188081
-1.6369953
-2.6954824
-2.648604
-2.8242309
0.57146631
-2.9545713
-3.6247216
-1.9285601
-4.049569
-2.1158537
-1.431191
-3.3741161
-3.0261182
-2.4439448
-3.0484714
-1.7946523
1.4322675
-1.4314642
-3.6944971
-2.9147778
-2.5704299
0.31351214
-2.4325808
-3.1737762
-2.2722196
-3.0032975
-1.757789
-2.6778485
-1.6245657
-1.7531964
-4.7282401
-3.0423454
-1.6893153
0.18378265
-2.0236164
-3.9025582
-2.9993091
-0.06044801
-3.133943
-2.9303632
-2.3001691
-0.91885933
-3.6123453
-2.9451274
-3.2174073
-2.3543496
-2.9061092
-3.6667109
-4.2490466
-2.463566
-3.5465505
-1.0007382
-3.0589352
0.4929122
-3.0404491
-1.8687164
-2.644073
0.58364794
-1.8767018
-3.130715
-0.55461892
-1.9955657
-1.6618931
-2.8498643
-1.5793518
-1.4304908
-1.6048188
-2.0635115
-0.94866301
-2.2861194
-2.2007418
-3.4619514
-3.5494722
-2.8043951
-3.2031747
-3.3379331
-1.3839725
-3.6506311
-2.9683187
-1.0575419
-2.9809877
-1.6409141
-3.1741969
-2.9307631
-0.20555937
-2.5528563
-3.5442286
-2.9355977
-3.545183
-1.9308342
-2.7539409
-0.85856745
-1.2028019
-1.3062394
0.95989552
-1.3902252
-0.68304079
-1.4908026
-2.9690519
-4.4345134
0.73280617
-2.4561574
-0.84273021
-1.7944979
1.2932418
-0.48871125
-2.7388544
-2.4990918
-2.516366
0.20971841
-2.1252558
-2.1498714
1.7032985
-1.7977233
-3.7067763
-0.081415901
-0.26729594
-0.54504988
-0.27926539
-0.22225797
-0.003822158
0.76080049
-1.6495585
-1.18337
-0.94011279
1.0384789
-3.0137188
-1.0177873
-1.446366
-1.8172188
-0.92086729
-1.6062071
-2.2106486
-0.007744105
-1.6856843
-1.1107048
-1.5286207
-0.69663175
-0.66996002
0.34636422
-1.1877027
-1.0486816
-1.3339586
-0.39396759
-1.1872677
-2.8682231
-2.8214743
-1.2429257
-0.43501603
1.539725
-1.0698261
-2.0161413
1.0901261
-1.3641879
-0.38873205
-1.8783454
-0.59108065
-0.92223942
-0.86388399
-0.10230775
-0.4388492
-0.10092689
-1.9929359
-1.2131216
-2.1867986
-2.4437412
-1.3148334
1.1561045
1.5961585
-1.2156697
-0.10865179
-1.0069979
-0.48893806
-1.59714
-0.6308586
-0.06038321
-1.1859918
-0.10495488
-1.3720408
-0.95308651
0.95254421
-0.19805968
-3.21923
-1.1329274
-0.89285071
-1.3159493
-0.51965677
-0.95511114
-1.0319625
1.2547587
-0.23010496
0.012086119
-0.91881015
-0.67505641
-1.2072645
0.004984126
-2.3542225
-1.0176085
-2.1884996
-1.3055077
-0.22388221
-1.3658
0.47219157
-0.28831798
-1.3279821
0.9950129
1.336423
-1.2093627
-1.1623472
-0.4161479
-2.206744
-1.4500439
-1.7161611
-0.41958818
-0.73444951
-0.32918131
-0.90039821
-0.54084692
-3.1203766
-0.79183755
0.13234815
-1.0091784
-1.0521378
-1.9193714
-1.768876
0.63337173
0.35565427
-0.91339806
-0.40769178
0.7601432
-1.443734
-0.49438913
-1.7795838
-1.901992
1.388189
-1.254324
0.28295422
-1.335748
-2.0873716
-1.260775
-2.0797689
-1.5352499
-1.5965333
-1.1388419
0.77127376
-2.1521446
-1.5425554
-1.0353187
0.87590309
-1.4421692
-0.70759326
0.77107384
-0.50987536
-1.5361242
-0.097229139
-1.1195902
-0.34038575
-0.40750954
-0.59714899
0.29764817
1.5530036
-2.6363705
-1.5491463
-1.0560698
-1.6371035
0.83964803
-1.78186
-1.4397975
1.079747
-1.4004279
0.44589319
0.73754363
-1.3255297
-1.3055061
0.23522148
-1.9284921
0.39183736
-0.37347391
-0.63688243
1.4332603
-2.0125325
-0.3995739
1.1733239
1.1384505
-2.0905523
0.46147594
-0.74823971
-0.69093799
-1.4849153
-0.48395617
1.1082198
-1.1990888
0.036977097
-0.24462611
0.34691389
-1.0586637
0.15795489
-0.28917279
-0.091148605
-1.4875808
-1.0322446
-1.1034482
1.069939
-0.57266378
-2.6510043
-0.46563052
-0.83719107
-0.60125118
-0.51104739
-1.076401
-1.2941168
-0.83304221
-0.7326228
-2.1426799
-0.86596501
-0.90855614
-3.1931125
-0.61100916
0.53619897
-2.2332599
-1.779959
-2.4809922
-0.91243389
-1.0980196
-2.7029409
0.71141435
-3.9960376
-0.59031419
-1.014383
-1.5524706
1.1211686
-1.5108036
-4.0453618
-3.6470895
-1.965967
-2.877246
-2.4567347
-2.9841942
-4.3892833
-3.8441616
-3.1617614
-2.6531003
-3.364291
-0.44417696
0.58666154
-4.0773425
-4.2163462
-1.9174373
-3.7474092
-4.8189782
-2.6341413
-3.4158686
-0.14734247
-2.5358845
-1.673338
-2.1328135
-1.7581256
-1.8723937
-3.1626514
-3.8245053
0.12001611
-2.8378335
-3.5104914
-2.6715656
-1.6938842
-3.8014779
-2.14077
-2.3446449
-3.4711799
-0.95872554
-2.6801696
-1.9022377
-1.2827783
-3.3060861
-1.3756634
-1.3754633
-2.8797288
-2.7814176
-1.9551177
-2.6475409
-1.3446846
-2.6699806
-1.8427955
-4.0672055
-2.1327923
-2.1751075
-2.2514478
-2.6560547
-2.0336278
-1.709227
0.028333263
-1.669313
-2.1743672
-3.0858653
-3.9367191
1.3275269
0.46045908
-4.88291
-2.784858
-4.6227061
-2.0794018
-4.1351843
-3.6256035
-4.4959355
-0.65719842
-2.3572145
-1.427927
-0.96739846
-3.3603157
-2.8258375
-1.1376536
-3.3804266
-2.3388206
-1.68801
-0.8352039
-2.4976956
-2.3301949
-3.7494029
-2.7927732
-2.0876062
-0.46552215
-3.3314212
-2.7346108
-4.6903852
-4.5644925
-3.4292935
0.58479003
-1.1155229
-1.546983
-1.1011512
-2.9511364
-0.42116396
-1.1509732
-2.389767
-1.9591578
1.6897012
-3.5472225
-3.1739803
-2.6376868
-3.2367884
-1.3756111
-4.0385577
-3.3967578
-3.3653215
0.1529562
-3.5640282
-0.30630047
-4.5302209
-2.3383724
-2.3717176
-3.2872741
-0.86153917
-3.0046407
-3.8332818
-2.4894149
-2.6920245
-3.3196961
-1.473962
-4.0588233
-1.088811
-3.0925401
-2.499002
-3.2649574
0.26047597
-2.791658
-2.8520895
-2.0275126
-3.2714779
-3.6927542
-0.55308739
-3.1540306
0.26912621
-2.8424348
-2.0171033
-2.7961887
-1.0486537
-2.1779947
-4.8436345
-4.4577241
-3.8412803
-2.437036
-3.0446536
-3.3465093
-2.1003403
-1.3528765
-3.935122
-0.94825699
-2.0360385
-2.9979515
-1.9822098
-1.9896258
-2.9979155
-1.9273526
-2.0832493
-3.9413794
-1.8492696
-2.7592954
-2.9449639
0.29123999
-4.099779
-2.9650098
-2.0026534
-2.445759
-1.7110015
1.5555753
-3.6473116
-2.8414887
-3.4622691
-3.7427594
-1.7173913
-2.7460485
-1.0801627
1.0509821
-2.9375376
-1.1780584
-2.1265467
-1.9336129
-1.9859264
-1.7881537
-2.2005218
-1.9450974
-3.3526947
-1.9816164
-3.1744673
-1.8096106
-3.6030082
-2.7127176
-4.3630304
-4.9075656
-2.8816742
-3.2701226
-1.5518604
-1.0518275
-2.1019768
3.0914132
1.5847327
-1.9949547
-2.259699
-2.9183714
-1.5176072
1.8761986
-0.68427738
-4.7531866
-2.1769125
-3.2671775
-3.3632038
-2.8737325
-4.6197504
-1.5170363
-3.1441189
-0.10949149
-4.0325885
-0.9438187
-4.4000176
-0.86193255
-2.7025533
-4.2105243
-1.8788969
-2.1820681
-3.4034062
-3.8200393
-2.51607
1.181184
-2.3273778
-1.6123944
-4.2881226
-0.87126202
-2.5210155
-2.616542
-0.50690174
-0.007799687
-3.7604495
-2.2705638
-3.3500141
-1.663991
-3.8543382
-3.4772579
0.15937941
-2.8492561
-1.1405998
-1.1821866
-1.6701462
1.5796387
-1.9492696
-1.3240625
-3.6533967
-2.8708736
-2.5738109
-0.30359042
-1.9060333
-1.9065495
-2.0720095
-2.9378533
-0.33611698
-2.5345109
-1.7981031
-2.5961362
-4.0932167
0.76822367
-1.5536301
-2.0653593
-3.2308054
-3.1618602
-3.2417841
-3.1224855
-2.7530257
-2.3488835
1.7976683
-1.6618626
-3.1746057
-3.2334342
-4.127337
-3.5878026
-2.0492859
-2.1164135
-2.4630689
-1.2026402
-2.2301595
-0.56961417
-3.0313581
-1.1320792
-2.0242459
-1.7127172
1.3079811
0.81809893
-4.460064
-4.1210583
-2.7103066
-3.9027917
-0.33237439
-3.1653717
-2.9142344
-2.3541313
-2.0130697
-1.6593956
-2.404365
-3.4262451
-1.611714
-3.0150745
-3.0166079
-3.2163265
-1.9451133
-4.1688679
-1.5955973
-3.2983691
2.1090443
-1.8974789
0.43273693
-2.0643013
-0.8315506
-2.0371191
0.46155499
-2.3987016
-2.1837809
-2.5248979
-4.354058
-0.94822934
-3.3730637
-4.0415019
-3.4062185
-2.8446093
-4.0281314
0.1902286
0.23524712
-1.1392766
-1.7376874
-3.2712974
-1.0580884
0.7852555
-1.519021
-3.2874998
-1.8580297
-0.51264382
-2.1737719
-2.6655402
0.084056883
-2.6835952
-3.3649725
-1.7966937
-3.6205798
-1.7054966
-2.53001
-1.0961208
-0.026767377
3.2675191
-3.8405188
-2.7090996
-4.1441223
-2.133307
-4.0616977
-3.5196114
-2.445296
-1.9845571
-1.3381821
-1.7761779
-2.443283
-1.259308
-2.7933913
-2.2719414
1.0465351
-2.5862131
-2.7940759
-2.9001971
-2.7021167
-1.3163151
-1.1638676
-1.6549005
-2.1448196
-2.5707434
-2.8307424
-4.2100772
-3.3763921
-1.1952177
-1.9689009
0.59042416
-2.2861482
-1.4879823
-3.5044439
-2.441962
-3.9231726
-1.6264074
-2.9609334
-3.4635843
-4.4149217
1.4463467
-2.6296594
-1.0526023
-2.8299649
-2.822721
-2.8970181
-3.5262606
-2.172029
-0.60165554
-0.18262223
-1.4432126
-4.0909377
-1.116359
-4.5116112
1.2817281
-4.227293
-3.5703315
-1.8883484
-2.19578
-3.6635418
-4.8245465
-2.5886267
-3.6086694
-1.2264459
-2.9430579
-3.0983338
-0.84823063
-3.2844278
-1.2065369
-3.8968206
-2.2794461
-2.6005781
-1.8472251
-3.156493
-0.77453896
-3.7092523
-1.5253101
-1.4131763
-2.5354764
-2.313292
1.7943907
-2.8416218
-4.1555058
-4.3123015
-4.0541575
-1.4217899
-1.1689503
-1.0435168
-0.31096368
1.1000786
-2.3463507
-1.5105138
-3.116012
-3.9604054
-4.3428072
-3.2632777
-1.9659074
-1.8719446
0.40342469
-2.8133339
-1.9012302
-2.5493737
-2.8013
0.006682529
-2.1485124
-2.5986776
-2.9371334
-0.045255295
-1.7549294
-3.6551425
-3.3169622
-2.5966431
-4.7319297
-1.6722301
-3.3909067
-2.9517386
-1.8067202
0.45014913
-2.1483256
-2.4251168
0.53598152
-2.8276921
-3.30845
-4.8480692
-2.9345771
0.32869333
0.2689289
-1.8896414
-3.2023207
-1.7828577
-2.1889873
-2.5846776
-4.0683567
-0.97376753
0.31701043
-2.0222052
-2.9930447
1.9949951
0.6954639
-3.19545
-2.2524566
-1.6628111
-3.3399552
-3.978977
-1.8668632
-4.225504
-2.5468455
-3.7593665
-2.1715905
-2.163296
-2.4798937
-3.2557982
0.29811073
-4.4269487
-2.794226
-3.770774
-3.4826267
-0.48554089
0.96086975
-0.86937708
-2.1819188
-3.9183
-3.7549341
-3.4498607
-0.72093443
-2.6736508
-0.22137184
-3.5763162
-2.3415141
-4.9575699
-0.58225521
-2.3990014
-2.0808331
-1.7125685
-3.0581451
-1.7804525
-3.1849918
-0.55757169
-2.279683
-0.85073057
1.4448403
0.70803163
-1.5737277
-3.1233897
-1.7965668
-2.2768598
-0.58654373
-3.9723705
-2.1468826
-0.3268393
-3.6864112
-2.9737884
-2.4283059
-0.21088497
-3.7459754
-1.1982423
-1.6713633
-3.7660022
-2.1257767
-2.3206169
-2.3453548
-2.6856672
-3.3881576
-0.58582181
-3.0607185
-3.6160963
-1.0622009
-2.0264568
-0.29152013
-3.1872827
-0.40285652
-1.6220586
0.68332057
-2.3478648
-2.7663877
-2.3630352
-2.0676069
-3.0747809
-1.6707241
-2.3294382
-1.5664491
-2.1781081
-2.6749663
-0.15687521
-2.4769498
-3.1983776
-0.99600772
-1.9153507
-2.5708554
-1.931531
-3.8210029
-3.8853673
0.048851024
-0.65701606
-1.9776395
-0.40515305
-2.9933109
-1.2401733
-3.098113
-3.009767
-4.0297533
-2.9919111
-3.579994
-1.8773077
-2.4621732
-3.9512328
-2.1942722
-3.0217556
-3.5231948
-0.75151059
-1.4427522
1.1502497
-3.8796276
-2.6883663
-1.7648578
-0.86317715
-2.617558
-4.4028867
-2.1525005
-2.7048052
-1.9846965
-2.1700832
-2.4311348
-2.9231533
-2.8719821
-3.5990384
-1.6404337
-0.80001662
-2.7608816
-3.1167163
1.4824831
0.55260079
-3.8468796
-2.5235521
-3.1206576
-3.8152961
-0.69576429
0.19085419
-2.8488334
-2.5352373
1.0146253
-1.3063914
-1.0079737
-2.5972415
-1.9383937
-2.9743856
-1.7896955
-2.8992949
-2.9792921
-1.7842838
0.56085732
0.58727662
-1.258996
-2.9658038
-0.83728133
-3.3795477
-2.8852524
-2.2205267
-0.41022926
-2.093629
0.41932568
-3.6523264
-2.73993
1.0237848
-3.5429506
-4.4081983
-3.1838151
-0.48753171
-0.33299912
-4.4155002
-3.3279077
-1.6726818
-2.1323409
-4.452256
0.68396458
-0.10239473
-0.19624336
-2.0466126
-3.7402892
-1.2073029
-3.1154276
-2.7806123
-2.282041
-2.6740973
-3.0287598
-2.4230408
-1.6676105
-1.9536969
-1.1591641
0.24738304
-1.0419113
1.6402648
-0.35795911
-2.5112793
0.064203507
-2.1474464
-2.6062365
-3.1199033
-3.7672048
-4.6192133
0.66702494
-2.4520369
-3.4039947
-0.29447578
-2.4523085
-0.69881631
-2.7081307
-0.013534921
-2.6847035
-2.6711798
-0.1839119
-2.5541916
-3.4959194
-2.6798962
-2.181712
-2.2797699
-3.5100382
-1.8393745
-4.5565716
0.22453981
-2.3841519
-3.469428
-1.9300904
-2.3261923
-2.4728141
-2.1177382
-2.5125286
-2.9898787
-2.5527505
0.15851556
-2.9852557
-2.3634995
-1.5544732
-0.35474013
-3.3662955
-1.8783507
-2.3789832
-2.3451085
-3.8547136
-2.2444198
-2.0742516
-3.3499185
-4.1197314
0.89537808
-2.171266
-3.0449298
-3.3371877
-2.691529
-3.9669498
-1.1635403
-2.3527342
1.4604151
-2.5149322
-3.726877
-3.2979109
1.172224
-3.359393
1.5973593
-1.8512419
-3.1091226
-1.5600964
0.86525753
-1.7693542
-1.6282384
-1.023958
-3.0262518
-3.4626602
-2.5112297
-2.7120551
-1.2223386
-0.096645939
-0.97142275
-2.6862219
-3.987033
-3.6026158
-2.5122172
-3.9378846
-0.060337827
-2.5788278
0.880992
-2.4655626
-2.6390659
-3.124683
-0.34205061
-1.5650495
-2.9535024
-3.2489695
-2.9582626
0.50042543
-0.28946253
-2.5872112
-1.8953114
0.28138585
0.89284807
-3.9473165
0.56073371
-3.6456569
-1.6915301
-2.9541596
-3.3662101
-3.0051926
-2.4996833
-0.99949737
-2.6672279
0.35934154
1.485195
-3.0440089
-3.4802699
-3.720943
-0.16458532
1.9053705
-3.5857216
-1.6876456
-2.223417
-1.5255511
-1.3532408
-0.26470628
-4.5487362
-1.89882
-1.4626864
-0.67558592
-2.4664227
-2.0261391
-2.303798
-3.9571213
-1.2436283
-1.4700534
-3.3114821
-3.9312461
-3.4074342
-3.7902616
-3.4148462
-3.2756514
-2.6568221
-2.1330346
-2.5406745
-4.0860048
-3.6720958
-3.3050092
-4.3397823
-1.786433
-3.9176609
-1.7003357
-0.93556975
-3.1001367
0.34775304
-3.2004504
-3.2443994
-3.2083584
-1.0286201
-2.708432
-4.5711886
-3.0660236
-1.0187332
-3.1302193
-1.2172473
-3.5303861
-2.2633715
-4.1667703
-2.4298686
-3.7086175
-2.4560813
-3.3582973
-3.2464743
-3.6234614
-3.3730938
-4.1606956
-3.3194283
-2.217988
1.1969014
-3.9734141
-1.83307
-1.4033429
1.1446048
-2.8381087
-3.3352948
-1.8224927
-2.531466
-1.4711163
-2.3992557
-2.7730639
-4.5219271
-2.2231151
-2.8893076
-2.9872272
-2.2397534
1.155657
-1.6758096
-2.0267389
-3.0143081
-4.4994807
0.55068105
-3.0118996
-3.0592972
-2.6853639
1.5905942
-3.095132
-3.4935139
-3.1853601
-2.965125
-1.3490352
-2.4460937
-1.5380591
-3.755167
-3.8883083
-3.3077296
-2.3937133
-3.1127839
-1.6687034
-2.3862282
-1.3697077
-0.87320577
-1.1909626
-2.6749315
-3.1511333
-3.391103
-2.5431206
0.16599565
-2.281035
-1.3972166
-2.927043
-2.1476586
-1.2122019
-3.5144975
-2.5666736
-0.99845396
-4.2112835
-0.029386691
-2.4492629
-0.34093911
-2.2209935
-2.2544638
1.5579052
-1.4605887
-3.8146218
-3.4229508
-3.0585088
-3.6465753
-3.0272629
0.80680238
1.4644645
-1.8378528
-2.7637368
-1.4939637
-1.1374459
-0.78726999
-2.1477989
-2.0868564
-2.0153947
-1.1678578
-1.4171659
-2.8855641
-2.567422
-3.2647161
-2.6203817
-2.6592894
-3.1748898
-1.8072051
-3.8389927
0.52987965
-3.670343
-2.3510915
-2.4708303
-1.1617314
0.65880436
-2.3747958
-0.6386225
-1.9818401
-1.8460337
-3.500824
-2.9623846
-2.6826614
-3.220689
1.9490075
-0.88408036
-2.2002189
-2.6188325
-2.3839508
-2.6527832
-0.4463199
-1.4981411
-3.2897357
-2.9167126
-0.52141053
-1.7254097
-0.64803288
-1.2283953
-1.2289845
-3.2703714
-0.83920971
-0.86653334
-2.6616461
-4.1257318
-3.5748414
-3.203775
-1.8000881
-1.1478444
-2.6334188
-3.7137388
-2.1840422
-3.031242
1.5575237
-1.0485204
-1.0615911
-3.4544022
-4.3241564
-2.7404501
-1.6079892
-0.9132684
-3.4144861
-1.4737877
-1.9920906
-1.7057727
-0.70358991
-4.1521616
-2.9139871
-1.9100368
-4.1409824
-0.77062441
-3.6649308
-3.7448317
0.46440129
-0.91257968
-2.9647912
-2.7210309
1.7384911
-3.3044923
-1.3891467
-1.152529
-3.3960661
-2.1711873
-2.413428
-2.2177445
-2.1258452
-3.1270832
-1.6383635
-3.833733
-3.4355511
-5.3202353
-3.293576
-3.3258092
-1.7886159
-2.0918619
-1.5151061
-4.3750395
-0.40222618
-3.2417364
-1.3047414
-2.0721989
-1.6386946
-2.3586638
-3.9265784
-2.7013954
0.03329606
-1.3729685
-3.3291169
-2.5055108
-4.1999437
-3.3504295
-1.3783223
-4.1355391
1.0998587
-1.3943061
-0.75036803
0.74692975
-0.88324741
0.28812066
-3.2634282
-2.5500119
-3.7777515
-3.3436901
-2.0041069
-1.3575269
-2.716798
-4.3149205
-3.1112177
-2.5863712
-4.2043687
-2.8398041
0.33776607
-2.0260819
-2.1825948
-0.51974033
-3.8651688
-3.3735747
0.33624383
-0.80129211
-3.9163293
-1.8340619
-3.1812397
-2.8031304
-2.7260682
-2.6802068
-0.35000841
-0.15354808
-1.4776907
-2.0886241
-1.8690135
-3.1920579
-2.8875772
-0.18907422
-2.5305013
-1.8387752
0.67410618
-0.20470097
-2.0760777
-3.3538486
-3.447022
-1.3772368
-0.99463422
-2.074226
-0.92115684
-3.0285176
-3.0546059
-4.2766349
1.8307142
-0.32168553
-2.032698
-3.6846412
-1.826589
-3.2051375
-2.3943275
-3.7935286
-1.6246023
1.9534212
0.040517861
0.51876786
-2.1972327
-2.9610403
-2.1856733
-0.85794685
-2.2999485
-0.54853931
-1.5911353
-2.4402263
-3.6519856
-2.3594412
-0.82272198
-2.5254969
0.72865626
-3.5630883
-4.1600631
-4.3314347
-2.9989868
-3.0607345
-2.1042061
-1.8841991
-1.26059
0.34285364
-0.5644416
-1.6260756
0.17579862
-4.1461397
-1.6605348
-2.8430014
-1.0855614
-2.3152645
0.018821116
-1.6649952
-3.074698
1.8866243
-2.6109089
-3.3259527
-1.1281441
-2.3131751
-3.7567285
-3.0677909
-2.84255
-2.6164797
-2.2668842
-4.2845174
-3.8325563
-1.9514729
-1.9710033
-3.1368685
-2.8002313
-2.3429539
-4.2040933
-2.2981627
-1.4639031
-0.87198107
-0.032524267
-2.3481935
-1.9370928
-2.339536
-1.7654861
-3.7380942
-1.2363614
-3.6767979
-2.4148894
-3.558816
-0.89631969
-0.13664511
-2.6915759
-3.3302789
-3.5922199
-1.2260121
-3.1126059
-2.5114053
-3.983415
-1.6373834
0.078107144
-3.4714599
-4.1088812
-3.0546515
-1.9003751
-0.22718373
-1.7859987
-3.9957124
-3.7756942
-2.3854307
-2.9515391
-0.90681277
-2.1735897
-0.76646054
-2.5191005
-2.4612313
-2.6527438
-2.969877
-3.4683481
-2.5593844
-2.6109173
-1.0786026
-3.0718681
-0.44969362
-2.465495
-2.913634
-3.7192432
-2.8239842
-2.4022448
-3.0444031
-4.0632262
-4.3275095
-2.6024488
-0.3610305
-2.3870485
-3.8631772
-2.3070748
-1.8978787
-0.91905142
-1.8496917
-2.5721508
-3.1508652
-2.8415194
-0.59995208
-0.45270447
0.39673089
-2.7984641
-2.4682505
-2.8754065
-1.7186501
-2.3968621
0.70555308
-3.3516789
-0.2455458
-3.4854677
-2.6844184
-4.0151092
-4.2088845
-1.8904411
-1.4065018
-2.2318408
-3.1079858
-3.7255159
-1.9837788
-3.4200625
-2.6414736
-0.68100316
-1.6705534
-2.4767493
-3.0385392
-1.176273
-3.4746546
-2.9752607
-3.6613794
-2.3799408
-5.1506339
-1.0521127
-3.9761543
-1.4308034
-4.4519078
-1.2262842
-4.6536948
-0.84846665
1.9247872
-3.4915775
-2.4158494
-0.60862065
-2.9030524
-2.7190281
-0.41896013
-2.8523301
-3.7022717
-2.2123197
-1.401181
-2.4607834
-1.7752721
-2.6069849
-3.5955617
-1.8679757
-1.2872351
-1.9726622
-2.4845522
-1.9181909
-2.8081065
-4.2605355
0.85517344
0.29109701
-1.6729426
-1.9405211
-3.0776599
-2.3374274
-2.8399809
-2.7184134
-2.865195
-2.7378617
-3.1134784
-3.9878333
-4.4299334
-0.47776861
-4.3498267
-4.2969871
-2.3295785
-4.0653433
0.44200679
-2.2220957
0.45039724
-4.0702525
-1.9510606
-2.5475671
-3.2367358
-1.9212148
-0.39839137
-2.0797699
-2.8742687
-3.5936747
-3.8452332
-2.2031916
-4.1184999
-1.3567239
-2.902968
-4.3622952
-0.73918391
-2.9260145
-0.017860766
-3.1328586
-2.1563131
-0.019159653
-3.6426155
-0.26044219
-3.2362462
-3.2167996
-3.0523911
-3.3641962
-3.6841505
-3.8091916
-0.43825896
-4.020453
-4.2459887
-2.4865693
-2.6075724
-1.2268025
-3.6723961
-0.75871159
-1.4224063
-1.4679019
-1.5035168
-3.4213323
-0.043381429
1.0142983
-3.3092705
-3.6221729
-2.4475122
-3.5618627
-4.0207906
0.80574078
-1.3532742
-1.7082764
-1.2132989
-1.0879487
-0.066926365
-3.8840707
-1.593003
-1.5663314
-2.5843693
-2.556639
-2.0266359
-0.97521418
-0.053538872
-1.3440189
-2.7452266
-2.8528431
-0.14336251
0.081045772
-1.1185291
-4.2363082
-0.46798226
-2.1712318
-3.0523562
-2.1096525
-1.2837741
-3.6351517
-0.38486428
-3.2559109
-3.4091542
-3.908891
-3.0658205
-2.4004917
-0.80537322
-3.6311663
-2.7167171
-1.2313942
-3.5388521
-4.3698744
-1.2152622
-0.62802192
-0.061311992
-3.8896193
-3.7705323
-2.7927508
-4.3141284
-2.8221053
-4.7895008
-2.6566371
-4.3335291
-2.5449647
-0.59855417
-3.1175169
0.7118383
-3.0801691
-2.979533
-3.2329313
-3.7746347
-0.82152834
-1.8940957
-3.7358572
0.85007317
-2.4399744
-3.7501831
-4.421635
0.28811054
-1.4166934
-2.9523682
-2.2403243
-0.038466282
-0.020313138
-2.557616
-2.3314908
-2.2947151
-2.2834215
-2.3829376
1.4078621
-0.93966312
-0.44542412
-2.8505913
-3.4131971
1.7393253
0.24864433
-1.9740693
-3.8753679
-3.0047093
-3.2358283
-2.0947608
-4.2683755
-2.2488066
-3.781517
-2.3017918
-2.676878
-0.85738851
-2.155272
-3.0811507
-3.0082835
-2.4895379
0.64995005
1.1075944
-3.6869883
-3.0711143
-3.1145269
1.1012308
-0.21516044
-2.3156011
0.47946506
0.92873895
-4.178696
-1.546962
-2.8022775
-2.0438491
-0.70271704
1.649815
-2.462103
-3.5969595
-0.75561759
-3.7108055
-3.5126072
1.7604114
-2.4289354
-3.3609942
-2.4238917
-1.1228599
-1.2936522
-2.4271675
-2.7400295
-1.5451509
-3.9785576
-2.8085947
-4.3935643
0.1717202
-2.4232606
-3.4064716
-2.5066129
-2.2987881
-0.076385348
-3.3880475
-2.4647759
-3.1691928
-0.59253123
-2.9963067
1.1452179
-4.4714521
-2.8033661
-2.6078412
-2.8023405
-1.7980748
-3.3805744
-3.0090414
-2.9420062
-1.6172649
1.5958143
-2.5728244
-1.9219161
0.35368708
-2.0253385
-1.274314
-1.7353452
-3.9534327
-2.3635048
0.010177914
-1.7728402
-3.2277693
-3.260267
3.3511363
-1.8709912
-2.565952
-2.1269252
-3.2323111
-2.5218919
-4.0451
-2.6244338
-0.22284629
-1.5090713
-0.49699131
-1.8020042
-0.1101939
-3.0361952
-3.8093533
-3.1557581
-3.2689192
-2.4516135
-3.039906
-1.8903496
-3.7862362
-2.3743006
-4.1528015
-1.6617565
-3.7342429
-0.083344807
-1.5789487
-2.2474515
-4.3019819
-1.7970355
-3.447086
-3.3091241
-2.6556869
-0.45673593
-3.9070449
-1.5386207
-2.093099
-0.90594063
-0.77145634
0.071752509
-3.3649594
-3.6164508
-4.4068889
-2.5310641
-2.6714565
-0.46674646
-2.7616018
0.84142569
-1.1650594
-2.9347198
-0.5992207
-3.2343927
-2.8242587
-0.70331089
-2.4738947
-2.6179815
-2.2820828
-1.8828568
-2.2131483
-2.9728724
-2.627841
-1.2428902
-2.6667844
-1.6125874
-2.3817315
-3.4672612
-2.4037825
-1.4893103
-3.1750692
-4.429281
-2.5844298
-2.9543637
-3.4966875
-1.6583281
-2.4293272
-1.1501052
-2.8618225
-3.5416143
-2.8476783
-2.3404799
-2.3279045
-3.4529936
-0.92520706
-3.4700109
-1.6098127
-2.6824446
-3.8741244
-4.103155
-1.83661
-1.6318472
-1.0597894
-4.4641039
-2.8074741
-1.8076482
-1.2126236
-2.5112842
-3.0557801
-2.8147008
-4.1526966
-0.49010147
-2.2924149
-2.399354
-2.8687093
-2.1250956
0.359571
0.46646708
-3.8915167
-3.708088
-2.650167
-2.602434
-3.1078702
-1.2939361
-2.5984085
-2.0522378
-2.1671337
-1.5411173
-3.5508
-1.7151506
-3.8239148
-2.6067535
-3.0276723
-1.6239886
-3.0909907
-2.5955147
-1.9499598
-0.26717979
-1.6333818
-1.7426504
-2.8965856
-1.7360514
-1.3263522
-3.8478934
-2.2663408
-1.7948538
-1.8028077
-2.0180811
-3.1039782
-3.1456694
-2.4727728
-3.3942359
-4.2174129
-2.0829652
-3.4808184
-0.6795145
-3.6344298
-3.0527112
-4.256942
-4.163443
-0.86491293
-2.5508187
-2.2914803
-2.0514475
-1.993194
-1.6285799
-0.58888865
-1.8446212
-4.543431
3.2977752
-0.092987412
-3.6739558
-4.3418207
-1.3824858
-2.3916415
-3.8380791
-3.3948439
-1.8222712
-0.43698073
0.46178274
-4.2143194
-3.517379
-0.55794812
-2.6579272
-0.72175887
-0.78560016
-1.6055082
-2.2628779
-2.4786568
-1.3191578
-1.6337394
-2.4601406
-4.0287849
-1.6018654
-4.0681032
-2.2227933
-2.2315003
-1.3361449
-0.91808465
-1.9058852
-3.1960506
-2.5319249
-7.0903741
-3.0472487
-4.3415996
-4.4755829
-1.2997871
-2.7816929
-0.98285934
-2.2786748
-3.1493304
-3.2352099
-2.1116542
-1.0836391
0.30947076
-2.8926784
-2.8019744
-4.1124831
-1.7056142
-3.2038604
-2.5581427
-2.4956801
-2.5633191
-4.7634149
-2.3877792
-2.2510747
-1.0229311
-3.198051
-2.3038423
-2.0397395
-0.17568824
-2.620777
-2.0747131
-1.8568212
-1.6095794
-3.9004678
-3.0074259
-1.6049349
-2.4327989
-0.9541941
-3.4324346
-3.6620406
-3.6808543
-2.3227895
-2.8496296
-3.4352042
0.79574377
-2.3509382
-2.5603509
-0.85196521
-3.8788731
0.71872274
-3.1696273
-0.14872723
-2.2398519
-3.676473
-3.1489069
1.8936031
-4.0679615
-0.83573384
-1.5392232
-2.7007593
0.81556497
-3.4642626
-2.1470222
-0.041976477
-3.8391132
-4.354335
1.6872477
-1.276006
-1.7689233
-3.4996786
-1.7000721
-3.6256947
-3.1476295
-0.86148382
-3.6537957
-4.6894754
-3.8202722
-3.5732556
-0.45215724
0.009904257
-3.5300462
-2.7408506
-2.7393393
-3.6390053
-3.2288985
-2.5276788
-2.4100009
-2.1800932
-1.5635005
-2.0060293
0.61032223
-4.767605
-1.845731
-3.4432433
-3.2615767
-3.2107727
-2.237328
-2.6207211
-2.6738669
-3.0614265
-3.0520106
-1.6581891
-4.0026603
-3.5119591
-2.11329
-1.7154515
-3.0825282
-3.2270844
-0.085064458
-3.6892169
-3.5691677
-2.8665458
0.48782113
-4.4103005
-2.243773
-0.90780051
-2.9368431
-2.9115018
-1.9740166
-2.7233937
-2.9057434
-2.7983705
-3.4038681
-4.0511335
2.0173458
-3.1846606
-0.30866411
-2.8087118
-2.572631
-1.9062762
-1.7950643
-1.4575089
-2.4707908
-2.4353318
-3.6750707
-2.546138
-3.0533294
-2.5867097
-1.9741424
-3.5620743
0.87275692
-2.6507803
-3.6703809
-4.6335097
-1.9838954
-2.6148945
-1.5635542
-1.5569553
-3.4714847
-2.5723065
-2.4858753
-4.0669731
-2.6557227
1.4402898
-0.002232904
-2.6377106
-0.035311958
-2.1566528
-2.4457538
-1.6385248
-1.0637377
-2.4172079
-2.8241731
-1.9073833
-1.8017254
-2.7169351
-4.9931637
-3.7881952
-3.9122943
-3.2444226
-1.1247729
-0.080987382
0.005586875
-0.97447012
-2.5072841
-2.1554629
-0.59428146
-3.5079209
0.55663701
-2.6894687
-3.7239609
-3.8885545
-0.1932496
-3.333382
-1.5969276
-3.4642986
-2.0583031
-3.3394401
-2.5351966
-2.6685636
-3.5258654
-4.0498075
-1.5370621
-3.5331048
0.62874221
-3.3055495
-2.0608501
-3.1900162
-1.8946454
-0.53069675
-2.5652911
-2.3890321
-1.3609375
0.003677395
-3.4740679
-1.1738492
-4.2258213
-2.9070837
-4.1292604
-4.717448
-0.78092924
-3.4792015
0.090146502
-1.3412203
-1.0145863
-1.8026252
-2.1772842
-3.8479552
-3.5263962
-4.3287151
-4.0075881
-4.2681429
-1.800048
-4.5725641
-0.87172305
-2.7309898
-2.5636096
-3.4065888
-3.9829055
-2.7916496
-0.36233361
-0.51969472
-1.2819739
-3.6892811
-4.2590976
-2.459126
-2.5440544
-3.8173722
0.96944947
-3.6652235
0.13886126
-2.4961347
-3.4334144
-2.7805321
-2.0786546
-2.3359174
-0.72208654
0.17022186
-3.7135042
0.11177592
-3.8104355
-0.32699726
-2.0830928
-1.3674963
-2.362605
-2.0223161
-3.6054266
-2.1869832
-0.44839373
-0.85344362
-0.19454066
-1.2323772
0.21279179
-2.9256486
-4.8207977
-3.2221184
-3.1096669
-2.2567495
-0.71363972
-4.0662887
-2.0197791
-2.2026746
-1.6088838
-2.9439997
-2.6679356
-3.408686
-2.477065
-4.1319724
-3.1100591
-2.1295479
-3.218038
0.41431889
-2.2912247
-3.1106647
-2.8091261
-2.3124822
-0.088297627
0.80113255
-3.5872016
-3.6429977
-2.4097078
-1.9310925
-4.3473518
-2.7661053
-2.5246136
-2.9025933
-4.0594062
-2.2640149
-1.2135297
-3.457563
-1.1275999
-4.2901706
-1.8364606
-4.4299437
1.1278206
-2.3680297
-1.9310868
-1.6099549
0.1651128
-2.9698502
-3.0713117
-1.3882266
-1.9651768
-0.13199979
-2.8296175
-1.8330969
-0.71217932
-2.9628548
-6.2808752
-0.22214931
-4.2251595
-1.2521886
1.0143436
-3.2675569
-3.4257967
-0.22184468
-2.1642106
-2.6909366
-4.2591739
-3.0712818
-2.1150456
-3.467013
1.0996969
-2.5241224
-3.0678091
-1.7439379
-4.1831587
-1.6282795
-2.4749889
-2.3718002
-2.6171476
-1.8887391
-2.9540491
-3.0350933
-3.1347706
-1.5074478
-2.2626753
-1.9786144
-2.148051
0.16571338
-1.3549117
-2.6931506
-2.3464712
-0.75931008
-2.6213715
-3.0784704
-2.8088985
-3.7705516
-4.3480526
-2.358285
-4.1539843
-4.0419106
0.65460368
0.7049704
-1.6310765
-2.4872153
-2.2542933
-3.1944319
-2.8629492
-0.70164433
-3.0572084
-0.56060788
-3.5219419
0.21328177
-0.40915705
-2.4434036
-2.9260007
-2.8726855
-3.1380982
-3.5210193
-2.9979478
-1.4673528
-1.2818252
-2.4665261
-3.2809648
-2.2925606
-0.58651526
-3.3837896
-3.4515478
-2.8996766
-1.889344
-1.479452
-0.68053669
-3.9340796
-3.9854377
-1.2233745
-0.79895599
-3.7799605
-2.7520007
-3.2650719
-2.9242187
-1.8876629
-2.3471756
-3.4054309
-1.9598399
-1.5456764
-1.3605148
-1.8711062
-3.3918721
-2.9079217
-1.5161171
-4.0688772
-1.4317809
-3.0631398
-4.0471122
-2.5140512
-3.2761632
-2.1342728
-2.6451091
0.33344314
-3.4847545
-3.5930925
-1.5051692
-2.898924
-3.3650375
-0.30110033
-3.1762581
-2.7342996
-2.2130023
-3.9614716
-2.4677216
-1.8535456
-2.8198544
0.99374857
-0.29832291
-2.4455978
-3.9277876
-1.3474152
-3.2002607
-2.1421062
-1.7950276
-1.5184646
-3.4735073
-3.0625447
-2.2919252
-2.9111311
-1.3880274
-2.7983827
-1.4938292
-0.4515601
-2.1171958
-2.5130923
-2.7390694
-2.7390315
-1.6693364
-1.1077369
-1.0160791
-2.238752
-3.000349
-3.9670552
-2.8916432
-2.9472375
-2.0633294
-2.7187364
-2.0073726
-3.4327608
-1.2737787
0.18896612
-1.5139222
-0.40805922
-2.0178716
-1.8325271
-2.8502034
-3.4671156
-1.922525
-1.5142643
-2.4430584
-2.4517945
-2.1087756
-4.0205851
-2.7111381
-2.1413577
-4.3574746
0.33538775
-3.3348662
-1.0471704
-4.5590404
-2.6379506
-2.2479769
0.1876657
-2.6306427
-2.1618283
-2.6186941
-3.8738158
-2.4643815
-3.849032
-2.1459411
-3.3265688
-4.3292617
-2.245741
-2.4412698
0.042398246
-2.8585281
-3.7171244
-3.0961314
-2.4446717
-3.2280586
1.4739407
-3.7420225
-2.3553998
-3.694742
-0.469012
-1.0321621
-2.56636
-3.2845419
-3.9014962
-3.5060312
-1.5229701
-2.989641
0.40683607
-2.6890007
-3.4753555
-1.1520374
-3.4194244
-1.206684
-3.8293727
0.47774176
0.85876083
0.61202766
-0.92013593
-1.8972434
-3.917181
-3.2917327
-2.1927398
-2.829281
0.28559834
-3.0591087
-3.271075
-2.2027215
-2.2425718
-4.5594871
-3.9214912
-2.8139145
-1.644749
-3.0696639
-3.6946241
-3.0007088
-3.8531034
-3.8682968
-0.55780885
-0.11582136
-2.409764
-4.456948
-3.9908739
-2.7139915
-2.1124362
-3.7384307
-1.2821273
-3.8533836
-1.8839151
-1.9829278
-3.2032912
-2.8902968
-3.9282317
-1.3105219
-3.1097191
-2.6209574
-1.7690856
-4.5395448
-2.8421027
-4.3940954
-3.408431
-2.3851225
-1.9551889
-2.7126457
0.63488775
0.81072744
0.8056853
-2.0745554
-2.6439407
-2.3545043
-3.0549368
-2.2097952
-1.0229847
-3.362494
-3.0806357
-4.6413785
-2.0173122
-1.7692686
0.87807225
-4.3562231
-1.3197614
-1.7488487
-1.5050219
-2.5554714
-4.2302827
-3.2036588
-0.79307791
-2.1787227
-1.3240126
0.23055218
-1.929078
0.020308075
-1.8278082
-2.4890627
-0.26702858
-2.9297871
-2.1373528
-2.7640625
-2.4955729
-1.4569184
1.1064485
-2.59622
-2.8987414
-2.3894934
-4.2653988
1.002088
-2.1341404
-2.3282512
-3.6256828
-2.5244536
-2.51394
-0.19751784
-2.7347411
-5.0260516
-3.9743616
-3.2637666
-1.9182256
-2.4663486
-4.3642404
-4.3737842
-4.5689418
-1.7957682
-2.4207865
-0.98917635
-1.066953
-4.1922868
-2.6112659
-0.82698912
-1.2498381
-3.2317866
-1.8696881
-3.5679871
-3.1858339
-3.546082
-2.388383
-0.99428113
-2.8977896
-4.4102002
0.15171571
-0.99085293
0.32340967
-1.9352961
-3.5297476
-3.0063966
-1.7129208
0.84911529
-3.7720543
-1.5527278
-2.6642236
-2.7993395
-2.7412993
-2.9175124
-4.2007791
-3.9330538
-4.2963602
-3.0017276
-3.2403342
-3.9677966
-3.568218
0.71639362
-3.1365629
-3.5428509
1.158704
0.616892
-3.598359
-0.82978422
-3.8399274
-1.9702951
-2.8168683
-0.16142435
-2.9960273
0.48943753
-4.3504378
-1.3545325
-1.8398664
-2.7944135
-2.1424162
-3.0324687
-2.3315659
-2.6871337
-3.9650391
-2.2094789
-2.1947212
1.2022944
-0.71998656
-1.7829031
-2.8540759
-0.88932392
-4.2976048
-3.0105571
-2.497844
-2.2982561
-2.3349201
-3.6984486
-2.4857664
0.30901663
-3.809343
-0.94128422
-1.5630787
-2.4623531
-3.2880467
-5.1807244
-3.5326191
-1.5358204
-3.7790161
-3.2251147
-1.3335291
-1.6958356
-2.0649279
0.71704787
-2.6431274
-2.5802668
-3.5130907
-3.1870049
-4.7219407
-3.2638034
-3.560734
1.2649369
-0.69068983
-1.9785867
-5.8355096
-2.6537758
-4.2369848
-1.30314
-3.0135261
-2.5198291
1.3187638
-0.13242028
-4.3283756
-2.955413
-2.1596705
-2.7971792
-0.53256687
-3.2823973
-3.0775953
-3.1833863
-0.33014928
-2.420253
-2.3681543
-0.95916538
-0.4168748
-3.1128807
-2.4845699
-4.6168382
0.018693358
-3.6249505
-1.5403223
-2.8646686
-3.7954225
-2.139559
-3.1203508
-4.1163396
-0.61448669
2.8944968
-0.93791023
-2.6149796
-3.1902834
0.78698554
-2.4050497
-3.4696612
-3.5924554
-3.7240981
-2.0366395
-2.2948489
-1.5913921
-1.9285331
-1.354432
-3.9476595
0.78886945
-2.0465172
0.56211539
-0.96967403
-2.1330924
-1.4079655
-3.1223586
-3.019428
-1.2602129
-3.6356136
-0.67770175
-4.1051346
-0.9148682
-1.71447
-1.7050709
-2.1609671
-1.2658237
-3.5184386
-2.5496452
-2.194853
-2.8632723
-1.3094071
-2.4014814
-0.74226893
0.32423847
-2.5521193
-1.9103624
-2.38048
-3.288446
-0.83901437
-0.88626793
1.1461011
-1.278821
-1.4441449
-2.0784308
-2.2684956
-0.92605131
-1.1981326
-3.6573746
-4.1145985
-1.4496963
1.7062864
-3.3345162
-3.0560388
0.064742408
-2.8563093
-1.8579649
-3.3490036
-3.9298749
-3.3068457
0.40487794
-2.6941373
-2.1918403
-3.4779424
-2.9068579
-1.915133
-2.0636293
-3.0375995
-3.5769138
-3.4107707
-2.7134258
-3.1482456
-3.3477992
1.6769279
-1.8641345
-3.4451593
-0.050182989
0.30088073
-3.0141811
-3.5765087
-3.457369
-2.6608687
-3.2950692
-1.9565029
-3.6734939
-0.9055432
-2.0501421
-4.3433519
-1.6939166
-2.3803327
-3.7654907
-0.63839074
-2.0727058
-1.8536067
-2.8119009
-2.5400678
-4.1421068
-3.4139541
-0.76088077
-2.0669509
-4.3325832
1.2421297
-1.416872
-4.2162346
0.052462855
-3.0717826
-2.6275268
0.66220728
-3.3375635
0.39827207
-3.01494
-3.280956
-4.4489736
-2.901408
-1.2775969
0.30072827
-1.5450204
-0.52248847
-0.62105503
-2.350438
2.2687522
-3.0352252
-3.2433044
-1.5450136
-4.5213024
-3.3186766
-2.9827963
-3.2473388
-4.3381588
-1.0722046
-1.5132759
-1.5135135
-1.8508768
-1.6407018
-1.8026659
-0.9565972
-0.69531154
-1.5682399
-2.1409032
-1.2852599
-1.6813927
-0.91154318
-1.311757
-2.1780282
-1.5252336
-0.75302153
-0.71393963
-1.5362496
-1.7890177
-2.3726957
-0.3177291
-0.69313379
-1.8913207
-0.77185517
-1.3966962
-0.83285628
-0.36784629
-1.2533638
-0.75566722
-0.68494264
0.18166269
-0.35825428
-0.71317023
-2.3298184
0.23496143
-0.15799584
-0.40109251
-3.5573964
-2.3655078
-1.7016643
-1.2553902
-2.1713602
-1.71154
-1.4707067
-2.5630449
-0.57419419
-1.8993025
-1.6605015
-2.2401826
-1.7726732
-1.1260654
-0.53840632
-2.6682493
-2.9310035
-2.4642958
-2.6749136
-3.3944784
-1.5484105
-0.07061725
-2.5507669
-2.6288817
-1.905968
-2.8543087
-0.4237925
-2.3455207
-2.2316029
-3.5353787
-3.0546452
-2.9138077
-0.93220382
0.94676715
-3.0089924
-2.8326805
-1.3168273
-1.3945683
-0.52225873
0.75888722
-1.74708
-0.79720813
-0.75510143
-3.8155176
0.59594828
-0.86089294
0.80449805
-0.82520676
-1.2326682
-1.6389408
-0.12757746
-0.77736914
-1.9918757
-1.5984805
-1.0076577
-0.74994509
-0.70420858
-2.2661986
-2.9377142
-1.4681189
-1.7188539
-2.1402525
-0.38546083
-0.99106003
-0.6990134
-1.5374159
-1.7567753
-0.88331487
-2.1583764
-1.1425381
-0.51343793
-0.43082711
-1.2481304
-1.8421131
-3.3395943
-1.9253892
-0.67903383
-1.2883653
-2.1782214
-0.82955175
-0.85900435
-2.1750728
-0.11553524
-2.6576559
-0.76488704
-1.9729545
0.20874035
-1.0702747
-3.9084752
-0.42583626
-1.7297703
-1.6570281
-2.1454039
-1.5190831
-1.5160517
-0.67469905
-0.98425658
-2.3101657
-1.6561644
-0.69101221
-1.5862998
-1.7134977
-3.0459647
-1.8805314
-2.0007068
-1.6145431
-0.2119067
-3.1705047
-1.9400754
-1.6291921
-2.2568267
-2.1268376
-3.2868625
-2.6005786
-2.8588738
-0.89594098
0.19929697
-2.2312767
-1.4219657
-2.5263388
-1.2484028
-1.8695477
-0.61299568
-1.6031165
-1.1272783
-0.8232262
-1.1748819
-0.95399086
-0.8454555
-0.22954072
-0.76988793
-2.5937802
-1.8810332
-1.1813653
-0.63583343
-0.77343517
-1.8274546
-1.7082084
-1.2240482
-1.8294579
-1.0224693
-1.2408056
-0.93798191
-1.1545182
-0.13578812
-1.5300874
-1.1470516
-0.93997519
-0.96078556
-1.3278312
0.22974121
-0.98087795
-1.4803455
-0.89810624
-1.1853073
-1.1200053
-0.71656353
-1.1077511
-1.4051883
-1.4052998
-1.2429079
-0.96991658
-0.68343263
-1.3426386
-1.5122063
-2.374696
0.43714992
-1.3337614
-1.1043951
-1.303313
-1.4423826
-1.1363547
-1.5673481
-1.3500732
-1.4151337
-2.1517512
-1.6357353
-1.914614
-2.3797
-1.8782884
-3.2034266
-2.6079952
-1.3899842
-3.0235843
-1.5220977
-0.77163509
-2.3256078
-1.5265928
-0.83101884
-1.7796973
-3.7466185
-1.8818454
-2.7633435
-2.7504766
0.25744874
-1.6192139
-1.0084958
-1.137772
-1.1898313
-1.4302315
-2.3267235
-0.85695744
-2.0577057
-2.0162986
-1.6912191
-1.506695
-0.024452227
-1.1378667
-0.79970084
-1.5377932
-0.62488334
-1.9182679
-2.6094174
-1.413587
-0.58847988
-1.6590773
-2.1080039
-1.7932982
-1.3609743
-1.3516157
-0.97749113
-2.2688257
-1.0377621
-0.97684474
-1.3653301
-2.582423
-1.0442214
0.16929554
-1.6453382
-1.1130288
-1.0240424
-0.20142047
-2.1714976
-1.7789832
-1.7122001
-1.0505807
-2.2525757
-0.73611621
-1.0823602
-0.28893851
-2.7026
-1.2445261
-1.6652956
-1.1558417
-1.559014
-1.1272917
-1.2640934
-0.5569922
-3.0106687
-0.32138679
-2.1011968
-1.6338475
-2.2137255
-1.7209611
-0.84037583
-1.1538643
-1.1063862
-0.057298354
-2.2367879
0.65063023
-2.1438073
-0.97725314
-2.4394219
-0.22670057
0.199407
-0.28588784
-2.8157304
0.11554415
-0.63883975
0.54560627
-0.59548603
-2.8708478
-1.874618
-1.6618906
-0.66102538
-2.2117917
-1.0528417
-1.6642132
-1.8566268
-1.9456705
-1.1615436
-2.3244544
-1.3648099
-1.3891588
0.10062811
-2.1578933
-1.7853885
-0.81759893
-1.5037232
-2.0682802
-0.94098317
-2.2416176
-1.0900951
-1.8250212
-1.5997965
-2.8729766
-0.71696773
-2.055628
-1.6321194
-2.7983533
-2.1228584
-1.7117946
-1.8518937
-1.0926646
-0.93408991
-0.43075918
-1.7965912
-0.36454512
-2.2399266
-1.2385152
0.56949937
-2.2047201
-2.8081352
-1.1437245
-2.8717528
-1.0938376
0.46945407
-0.47897354
-1.5336699
-0.64191788
-1.0940913
-1.4276912
-1.6033347
-0.7597479
-0.97339575
-0.39547011
-1.2958051
-2.2528146
-2.9455794
-2.4419954
-2.4099976
-2.5073142
-0.55119104
-1.5120093
-1.6293528
0.065471046
-1.5283489
-1.0979552
-0.63929919
-1.7359626
-1.8395666
-1.0697208
-1.2820147
-1.473841
-1.5308938
-1.6303964
-0.79307509
-1.5947325
-1.1775742
-1.5230291
-2.8941369
-2.084247
-1.9698524
-1.524909
0.19102391
-1.29827
-0.93706866
-0.21006258
-1.1401767
-1.2812396
-0.66820219
-0.27791989
-0.72390085
1.5679205
0.94141089
0.50726518
-0.54043564
0.34964489
0.10164453
-0.77648767
-2.092583
-1.0013597
-2.0379826
-1.7422791
-2.3140088
0.17666327
-1.8974241
-2.3982567
-1.4613673
-1.6197515
-1.2938914
0.53675023
-2.024762
-1.3498494
-0.78865461
-0.90774427
-0.65012542
-0.006057767
-0.3964454
-1.250807
0.081988164
-0.66940857
0.29785828
-0.01912957
-0.035569359
-0.45659844
-1.512685
0.25969758
0.45737228
-0.11765496
-0.51305421
-0.67287121
0.048987775
-0.19804148
-0.082940874
-0.91081028
0.34599733
-1.0751399
-1.9711608
-1.1448487
-0.24438004
-1.8389024
-0.018783542
-1.0833547
-0.93335004
-0.023255339
-0.61659413
-0.076682493
-0.34677386
-0.81114376
0.000940417
0.73547281
-1.0319985
0.006769084
0.63283149
-0.41533588
0.25750157
-2.2990383
-0.1699151
-3.4569054
-0.65226432
-1.0337591
-0.7145989
-0.12895763
-0.2051316
-1.1558962
-0.53847337
-1.2552833
-0.5250678
-1.0346467
1.1673264
-0.24840122
-0.70562443
-0.91640101
-0.26559527
-0.36676875
-1.1538983
-0.65433733
-0.65479405
-0.18639777
-0.59798991
-0.75805509
-0.44819424
-0.50536789
-0.53543873
-0.71565197
-0.76811046
-0.9401598
-1.1740347
-0.80868972
-0.64373945
-0.37728305
-0.50628908
-1.6737771
-1.2839691
-0.93255602
-1.2127795
-1.6804912
-1.1138234
-1.1079969
-0.71573951
-0.55151202
-0.5133182
-0.46987817
-1.4070193
-0.90058465
-0.97037783
-1.5875904
-0.58983818
-1.5240544
-0.88703722
-1.5510303
-2.00383
-0.24128277
-0.44473823
-1.1746874
-1.692356
-0.43728547
-0.25328138
-2.1170764
-0.50936742
-2.401455
-0.70619482
-2.651589
-1.2945926
-1.7235097
-1.2612234
-1.1290503
-0.50944494
-0.63761499
-1.2847299
-1.5800732
-1.9979993
-1.1251822
-0.36451051
-1.2863655
-1.3096633
-5.5022026
-1.1968618
0.014873429
-2.4378662
-2.137572
-0.99072113
-1.2567935
-0.22344844
-0.9687066
-2.3251553
-0.42191014
-0.92780323
-0.55550903
-0.58431161
-0.8556181
0.43986034
-1.8929476
-0.55378404
-0.35965649
-0.17186854
-0.25259062
-1.6249397
-0.53709488
-1.7096749
-0.52306976
-1.0203358
-0.76666865
-2.6047833
-0.66883377
-0.1065136
-0.51977437
-1.1812515
0.08336198
-1.3098672
-1.0317953
-0.38590004
-1.4301493
-1.0778315
-1.2976871
-1.587883
-0.71948504
-1.2048457
-1.6933045
-0.34786249
-0.87846627
-1.7144019
-0.83812097
-1.6501276
-1.228928
-0.094130607
0.81193161
-1.279446
-1.3413062
-1.7697846
-1.4409423
-0.97585031
-1.8438918
-0.46741842
-2.1405158
-0.67888856
-2.1586222
-1.3513521
-1.004234
-1.6088344
-0.8847027
-0.8060061
-1.1671055
-0.59121884
-1.6216071
0.13223731
-0.33828509
-0.64478221
-1.4609554
-1.52344
-1.5964923
-1.139702
-2.7694626
-1.6610337
0.24769006
-0.26517346
-2.2729354
-1.6845154
-2.9673678
-1.8341169
-2.6232868
-0.97302048
-1.4334488
-2.6239617
-1.6150634
-1.8164849
-0.70454382
-1.3397153
-0.91483385
-0.81278901
-1.3104388
-0.054255643
-1.9777499
-1.7699615
-1.9915854
-2.9083184
-2.4613697
-2.1796738
-1.1177427
-2.4177251
-1.2354846
-0.87433912
-2.0099548
-1.1590306
-1.7762458
-2.081127
-1.6566336
-2.2316387
-2.3068596
-0.83094741
-1.2040019
-1.2252563
-0.99039573
-1.256109
-0.6980133
-0.91764283
-0.57284733
0.031744581
-0.13581712
0.63581278
-1.1992452
0.89851023
-0.65923885
-1.5098256
-0.3676507
-0.726476
-0.19465735
-2.0198585
-1.8979649
-1.0418189
0.046499759
-0.79978345
-1.632522
-0.63838394
-3.510637
-0.083464125
-1.1193872
0.31172063
-0.72137615
0.095295852
-2.1561644
-0.47788873
-1.5809811
-1.5059525
-1.3274795
-5.4416439
-0.75617828
0.039611411
-3.2088975
-2.1045222
-2.9946131
-0.40326889
-0.29595761
-1.9959619
-0.89717627
-1.368822
0.62997443
-0.8901083
-0.81924467
-0.6336356
-1.3585298
-0.062112477
-0.10106176
-0.70102696
-0.45675699
-1.6948091
-1.3175353
-0.35192027
-5.8061265
-1.5909276
0.90918352
0.36045429
1.8322681
0.25755533
-1.1540705
-1.0901196
-0.010463118
2.0315829
-1.1408859
1.394968
-0.61218873
-1.5036684
0.007106127
-1.7842171
-0.8137707
2.1438703
0.33596105
-0.22705015
-0.35841754
-1.9479187
2.2092086
0.31234393
-2.2849918
-0.55806955
1.829274
-1.3248044
-0.3412237
-0.13057639
0.82632263
-1.95748
-1.0100863
-0.60931321
-1.2866751
-0.27519734
-2.3389634
-0.60638521
-1.7920913
-1.89049
-0.26862907
0.376428
-0.80908301
0.34769835
-0.27446884
-2.5345501
-1.8451663
-1.3177769
-2.0948756
-1.8878612
-2.22904
0.14052684
-1.7531524
-1.2940834
-1.3457214
-1.6069656
-2.0447035
-1.7010074
-1.6351768
-1.2196688
1.9717869
-0.7470029
-0.46883082
-0.804537
-0.89823303
-1.1094351
-1.3407319
-1.2371642
-1.0591492
-0.004220197
-0.84616597
0.004475116
-0.62981562
-0.47413184
-1.472702
-1.6504649
-0.81807991
1.1818211
-1.9751
-1.9260016
1.2452032
-0.47516773
0.039517068
-0.94463491
-0.86395977
-2.1978825
-1.5029984
0.8965244
-1.8460508
0.17051206
-1.6721318
-0.43514179
-1.5574671
-3.3157416
-0.43410599
-0.47411446
-1.8671581
-1.7096409
-2.8003305
-0.45002732
-1.062059
-1.4433034
-2.1368362
-0.96402526
-1.1827388
-1.0233017
-1.5907026
-0.69308795
-1.6132898
-1.0893941
-0.5452054
-1.0455621
-1.039059
-0.56196993
-1.2251888
-1.0508231
-0.81581456
-0.75575097
-1.1208652
-1.8429702
-1.4351718
-0.77472113
-1.5554245
-0.83663568
-1.0839206
-0.99004667
-1.2232548
-1.217102
-1.1279038
-1.0780296
-2.3099334
0.42942209
-5.0909808
-1.1446882
-1.9828811
-1.7155112
-0.89102787
-0.79319539
-0.37889241
0.32915064
-1.4889544
-1.7898183
-0.22197073
-1.1389697
-1.1061043
-0.74391505
-0.72123393
-1.3585595
-0.95143867
-1.0861463
-1.0139344
-0.1139452
-0.15361428
-0.80965529
-1.7375933
-1.3737589
-0.82524208
-0.12112629
-0.32724496
-0.83430528
-2.0568931
-1.4917474
-0.60609777
-2.2326281
0.21606781
-0.21093417
-1.9644127
-0.43091268
0.1888069
-0.75598392
-0.49050928
0.48779263
0.79558043
-0.79199088
0.042032092
0.025133459
0.092082838
-0.58234983
0.25294465
-0.35195794
-1.2758167
-0.095367711
-2.4370768
-1.1123934
-1.1579035
-1.4823743
-1.8620137
-2.2397992
-0.44355159
0.01919897
-1.3297425
-1.4445824
-1.4721424
-0.72472094
-1.4325061
-0.93659898
-1.8972278
-0.42007165
-0.82221802
-1.4373405
-1.2415961
0.1780151
-0.76130254
1.0251575
1.2814887
-0.10500259
0.96115585
-1.9122954
-0.6940985
-0.75382096
-1.911317
-1.170123
0.89232112
-1.8497031
-0.99174028
-1.3820468
-3.6732325
-1.8734162
-3.2869165
-1.5919701
-0.85933939
-1.4562656
-2.1027309
0.13232585
-1.2906964
-0.84286694
-0.78369481
-1.1110524
-0.85435976
-1.2784667
-2.3828891
-0.25694022
-0.30870977
0.17678564
-0.50094273
0.3101425
-1.1606971
-1.8116834
-2.0506144
0.44697416
-2.3488312
-3.2075726
-1.8600353
-1.6462092
-1.8785817
-1.3719104
-1.7561403
-1.829717
-2.0547983
-0.87935031
-2.2218253
1.0489098
-1.1242213
-2.645798
-3.6556719
-0.4215029
0.10323766
-1.1574275
3.4796887
-2.7313295
-0.57500752
-1.6586794
-1.3647136
0.98287215
-1.305832
-0.25130582
-0.65526144
-1.1591783
-0.48588802
0.14615508
-1.1851324
-0.87684706
-0.006122247
-0.95760389
-1.768395
0.48349225
-2.3481773
0.72468795
-0.096279605
-0.75602424
-1.823279
-1.4800796
-0.90162133
-1.9448258
-3.1807345
-1.813543
-1.2282395
0.17930053
-2.0732621
-2.1852523
-1.3504537
-1.4752678
-0.7037557
-0.95581763
-1.8581985
-1.6438322
-0.71850468
-1.3879568
-0.44829014
-0.052370621
-1.2547967
-0.75560759
-0.99637893
-0.74082217
-1.2214099
-0.40998849
-0.23201317
-0.81894831
-1.0486769
-1.6808981
-1.6950811
-0.47848679
-1.8355093
-0.78736529
-1.5496858
-0.59847665
-0.43943089
-1.5962357
-1.9172687
-0.98927995
-0.80279553
-2.1193458
-1.5144921
-1.6580413
-1.2221679
-0.7309427
-1.3887068
-1.8155345
-2.4513688
-0.54880259
-1.0594114
-1.5537253
-2.2307473
-2.8400384
-1.7310966
-0.24263137
-0.2113889
-0.99817156
-1.1136043
-1.129976
-2.038117
-1.4488021
-0.94443364
-1.5456213
-1.2307845
-1.1666677
-0.73556424
-1.9845212
-0.47984359
-0.98269605
-0.88394022
-1.6488365
-0.54917231
-2.6086621
-1.8559608
-0.51254833
-1.1626939
-2.0998543
-0.80253841
-1.1445021
-0.60993453
-0.33714752
-0.62074795
-0.79121075
-1.1033971
-0.93701236
-0.63954435
-1.610526
0.024515753
-1.6802232
-1.5777836
-0.2737931
-0.65479669
-0.84191248
-0.87820362
-1.6923975
-1.450765
-1.5291481
-1.3279175
-1.0518914
-1.3565277
-1.0368203
-1.0961023
-0.4649814
-0.86845921
-1.4448879
-0.9026239
-0.53934945
-1.414627
-0.39266401
-0.71684493
-2.3904283
-0.90516641
-1.5873182
-0.77312181
-1.4409717
-0.89128758
-1.8366583
-1.8755667
-0.4692299
-0.60399268
0.1734252
-0.74690976
-1.0258642
-1.9467028
-0.21214408
0.16310459
-0.31033403
-0.95854454
-0.066142906
-1.5559236
-0.85188422
-1.1103964
-0.83178854
-0.094328897
-0.45515109
0.1551384
-0.80549948
-0.47111945
0.044169625
-0.23113882
-1.1895055
-0.49494501
-0.54123001
1.1194668
-0.53458064
-0.62973844
-0.78113463
-0.92201191
-0.94053451
-0.60960991
-0.46382128
-0.49464559
-0.57619742
-0.17043694
-0.89523391
0.41787509
-1.4936901
-0.37376037
-2.0490535
0.25011472
-0.60945611
-0.043561387
-0.84117385
0.81464527
0.14210797
-1.1618154
-0.16839702
-1.9596251
0.53657962
-1.0556676
-0.082370329
-1.0721319
-0.74388962
-0.45851643
0.4727917
-0.38233758
0.096341592
-0.36160839
0.13820512
-0.20486428
0.9002677
-1.0611831
-0.043318206
-0.6178657
-1.131916
0.18974186
0.34955521
0.78967891
-0.6473008
-0.034247609
-0.30041861
-0.30318347
-0.4850556
-1.2981411
0.60667419
0.50286105
-0.33171
-0.14434677
1.2898142
-0.40254147
-1.132299
-0.56978459
0.18917154
-0.7654258
-0.77528298
0.92596131
-0.53049288
0.033659122
-1.8867805
-0.39540616
-0.41213501
0.40293015
0.028868921
-0.56195217
0.34218998
1.1451623
0.42669256
0.5931013
-0.086717694
0.43246702
0.42324497
-0.31421577
0.11452096
-0.7912844
-0.50778728
-0.19728599
-0.60866942
-0.18683627
-0.52213078
-0.84391506
-1.068702
-1.3614954
-0.74824101
-1.6043224
1.1586386
-0.93053381
-0.58550305
-0.076721175
-0.62091352
-1.4302077
-1.8115748
0.017587599
0.71117259
-0.27052765
-0.28809847
0.024208509
0.79987426
0.095062297
-1.3482916
-0.27136479
-0.11963443
-1.609746
-0.39978377
-1.3091708
-1.71323
-0.58719139
-1.0295648
-1.0549977
-2.5428636
-1.516076
-0.54101393
-0.65770672
-1.3644097
-1.1833423
-1.1651932
-0.82072146
-1.5391348
-0.91424878
-1.4577068
-0.96503595
-1.4054497
-1.111326
-1.2026821
-1.2224836
-0.21338591
-0.68521438
-0.98515808
-1.25754
-0.97039854
-1.0114531
-1.6192581
-1.5695351
-1.0336315
-1.3354999
-0.31137886
-0.055533715
-1.8437318
-2.5053913
-1.1510144
-2.5230774
-0.31024442
0.20931287
-1.718203
-1.3117761
-2.4563103
-1.393673
-2.9359799
-0.9774117
-1.6208071
-1.5487587
-1.4867184
-1.3464739
-2.2559625
-1.7070111
-0.89321319
-0.64293388
-2.1457917
-0.86154591
-2.0761079
-1.7211168
-1.9941839
-0.78923305
0.1513912
-0.15790064
-1.3786089
-0.13989812
-0.2971731
-0.12879549
0.085424567
-1.8285673
-1.4342688
-1.8248686
0.031504482
-0.21969872
-2.8362085
-0.80886308
-2.1588448
-1.4962537
-0.44170442
-0.9712557
-1.7241771
-0.24037014
-0.91973395
-1.1450535
-1.7025556
-1.0292245
-0.18883387
-1.4489564
-0.38569191
0.40659418
0.66394972
-2.2661216
-1.1829527
-1.702885
-2.0311866
-1.2351635
-1.0420392
-0.10153429
-0.63040285
-1.5817661
-0.19356585
-2.5558384
-1.7379336
-2.3232346
-1.5959289
-1.5772362
0.59409321
-0.3742232
-2.065635
-2.4064355
-0.59312057
-2.1304257
-2.5581138
-1.5225897
-1.6090297
-2.4376667
-1.6203646
-2.0763535
-0.053140799
-1.417712
-0.65046895
-1.1319858
-1.692062
-2.2290985
-1.1722193
-0.47222607
-1.3747942
-1.5130093
-1.8146166
-0.97740395
-0.91682494
-0.72830254
-1.4944446
-3.042079
-2.6126248
-1.7428614
-0.91632809
-1.2287286
-2.0146245
-1.962057
-1.3064288
-0.42313096
-2.0727685
-1.9812057
-2.5817713
-1.9448124
-0.8465267
-0.79057671
-1.1712393
-1.2926609
0.67924333
-3.5370445
-1.7916125
-1.7744281
-2.0874314
-0.24734083
-0.061466751
0.18861599
0.84206261
0.70285239
0.89998118
0.32856717
0.84771742
0.47820062
1.0665815
0.75904631
0.14074071
0.68017021
-0.013412254
0.23786451
0.88168052
0.023732825
0.14835867
1.0780875
0.95442379
0.3974819
1.148919
1.3272397
0.30613564
0.75503277
0.9137936
1.2169664
0.87849344
-0.11574309
0.55716494
0.26890999
0.86076639
0.85248173
0.7905128
1.0970611
0.78039476
0.27693952
1.1974229
0.80662708
0.85987006
1.0675117
0.95474464
0.61493655
1.6994656
0.72977858
0.51210261
0.35273451
1.0068544
0.76765295
0.41990205
0.78703965
1.7154375
0.85747805
1.4599831
1.6958754
0.79061426
1.0387273
1.5925968
0.7115778
1.4203663
1.3865043
0.66451361
1.1795478
1.4309996
1.4714553
1.6888525
1.3966508
0.672062
0.81015801
-0.11665877
1.5944515
1.0370845
1.6435253
1.0979023
1.3479834
1.4942312
1.924922
1.5792545
1.5882646
1.7158784
1.7127009
1.5781688
1.4612114
0.92848275
1.6588913
1.0058367
1.765185
0.047219725
0.94968038
0.66081123
0.86122442
0.25756239
0.7564706
1.0399984
0.10693868
-0.52810988
0.5939205
0.13844314
0.43773833
-0.18603265
0.60586417
0.44224543
0.68818262
0.55844508
0.49447171
0.75329516
0.68991956
0.12313676
0.30526532
0.52166443
0.40082827
1.2041288
0.72950605
-0.000106511
0.98179947
0.27991942
-0.094587657
0.95889753
0.67596219
0.46837736
-0.6557648
-3.1804041
-0.10960185
0.44252366
0.52976904
0.087136413
1.4807788
0.71594065
0.33903383
1.0137766
0.98078076
-0.056455058
0.78278839
0.85049145
0.64213793
0.94014345
0.43290073
0.72682557
0.83137426
-0.053025007
-0.29546663
-0.18798645
-0.16646176
0.51955974
0.29639877
0.50820783
-0.5367486
0.95843208
0.672074
-0.43529425
0.18585671
-0.45434083
0.62178106
0.56005309
0.5330708
0.67184597
0.11380481
0.73979297
1.2717739
-0.19758357
-0.19766862
-1.0846312
-0.40066017
-0.59146599
0.1768534
-0.3071344
-0.52696733
-2.0372037
-1.7497951
-0.71029281
-0.95116127
-2.6470621
-1.8975593
-2.0370203
-2.3312998
-2.3561626
-1.4817049
-1.4792048
-0.54151927
-1.556476
-1.2101256
-1.4700667
-1.8051076
-0.87769717
-0.4273847
-1.4673436
-0.54321942
-0.50719805
-0.73339069
-1.9296651
-1.6416803
-2.4366437
-2.0372526
-1.501839
-2.1837225
-1.0296155
0.73104183
-1.147942
-0.094338425
-1.4920318
-0.88863586
-3.4954296
-1.4818003
-1.4344115
-0.75277434
-1.1571678
-2.3395762
-0.70044113
-2.5918032
-1.5520095
-0.84057559
-2.3884813
-1.0752323
-2.7350943
-1.6424079
-1.9897443
-1.9467219
-2.6072241
-1.7676587
-0.97581136
-2.1575934
-0.94554423
-2.1456476
-1.2369754
-0.89806206
-0.32243708
-2.5308891
-2.8952723
-1.3560205
0.59367026
-0.94610638
-1.670864
-0.89639431
-1.6863066
-0.93867544
-2.8570611
-1.2051325
-0.65184234
1.4506975
-1.4174054
-1.7660779
-2.3026215
-1.9806111
-1.9123301
-1.5559677
-1.9604024
-1.3555033
-1.5702905
-0.9138921
0.42418121
0.68454045
1.3406578
1.2885206
0.25909855
1.055519
1.6433088
0.29697396
1.5366274
1.1515909
1.1700318
1.4922864
1.472896
0.7723214
1.5053629
0.6697777
0.92686441
1.5319212
1.4025159
1.6681677
0.34778395
0.90036916
1.5294293
1.462033
1.3422797
0.52128012
0.74963476
0.90244081
0.74449979
1.2081828
0.36859929
0.45697425
1.3222829
0.052077761
1.0636316
0.41273057
0.6424519
0.29629341
1.2981336
0.30054247
1.3050519
1.2445626
1.2656819
1.3133602
1.4341523
1.3031673
1.2698229
1.4942685
0.44089127
-4.5056767
1.3360561
0.80078582
1.4277785
-1.5965967
-0.3394998
-1.8424471
0.51412813
-2.0247783
-1.5695278
-0.52864831
-0.48466145
-3.044823
-0.73267929
-1.642572
0.57083995
-0.67605379
-0.41224415
-0.47159872
0.27443776
-0.83475171
-0.95119974
-0.66469577
-0.18297707
-0.90548002
-1.494667
-0.75472335
-0.16337641
-1.0407576
-2.3691762
-2.1687758
-0.28859434
-0.23339116
-2.401475
-0.91400943
-0.85280236
-0.14472969
-0.24885244
-0.50489376
-0.12141499
0.12008641
-0.69695742
-0.66864089
-0.90246642
-0.85028914
-0.82247909
-1.0978779
-1.2295083
-0.31779604
-0.47806153
-1.7350057
-0.66051512
-0.78779673
-0.21155773
-0.25440704
0.031725086
0.27640054
-0.105185
-1.3701171
-0.83332434
-0.40971097
-0.4881623
-1.2686267
-1.6133348
-1.2236362
-0.75188786
-1.4020474
-0.5624888
-1.1770155
-0.66312617
-1.6571105
-1.1964272
-0.982613
0.038346575
0.38487811
-1.3357147
-0.25000933
0.025151498
0.33910281
-0.94900187
-1.0483018
-1.4494112
-0.47093356
-1.7842059
0.19086838
-0.0935207
-1.2179486
0.45872522
-1.2599532
-1.5877844
-2.2026785
-1.2684395
-1.2895483
-0.5271321
0.08680197
-1.8907768
-1.0159594
-1.0330419
-1.1153875
-1.0755456
-0.81000507
-1.0235859
0.1642394
-2.4085886
0.52633365
-1.5998881
-0.79738812
-1.5763946
-0.50258495
-1.6752278
-1.4432984
-0.54776827
-1.8606967
-0.97624809
-0.2453909
-2.1862013
0.3111619
-1.1346721
-1.068641
-0.41881547
-1.7120614
-1.0810632
-1.4175322
-2.9317883
-0.86231208
-1.1229087
-1.1989814
-0.7846879
-0.8863056
-0.83796876
0.17700988
-0.61978481
-0.47754871
-0.25648287
-0.14002582
-0.61500051
-0.89507291
0.16106068
-1.504676
-0.79638929
-0.51306244
-0.92234548
-1.4313923
-1.3836047
-1.1619081
-0.8851831
-1.2888151
-1.4605902
-1.0545387
-0.2708468
-0.87790235
-1.0214039
0.40874254
-0.59152121
-0.73385668
-1.933146
-0.098339426
-2.0879124
0.34414341
-1.2468323
-2.2787241
-1.6234035
-1.1740895
-1.1888106
-1.2701629
-0.3356508
-2.8601161
-2.2529248
-1.8895451
-2.2090058