-3.7738969
-4.2858426
-3.8742297
-3.6163638
-2.3847613
-4.4780109
-4.1021848
-3.1874679
-3.3044731
-2.2573013
-4.686175
-3.527643
-4.1259793
0.4231153
-3.8943153
-4.0168823
-2.8541073
-3.1920276
-2.8516809
0.34090237
-3.9756571
-2.3433933
-3.6341531
-3.3877792
-3.6660708
-1.2755868
-2.8690724
-0.49019514
-4.6348854
-4.0897041
-0.38375438
-0.84626258
-4.3009498
-2.0119899
-2.1090848
-3.596764
-2.2679727
-2.9895709
-4.0946853
-2.4019983
-1.9673779
-1.9397493
-2.2140382
-3.9043667
-3.0436824
-3.6197798
-4.0476053
-3.709385
-2.4357678
-2.6317933
-4.0213751
-3.8148856
-4.2551539
-3.230651
-3.5876899
-3.4994445
-4.2502468
-3.9338848
-4.3736282
-3.6764554
-2.5083201
-4.5102999
-4.6434285
-4.2213757
-3.9478
-2.7531677
-4.526609
-2.6495385
-3.441111
-4.7476673
-3.1602899
-4.3016237
-1.655758
-1.5316436
-3.8154717
-1.8032768
-1.6857579
-4.1732599
-3.7721203
-4.2149509
-2.9215615
-3.3094588
-3.5497331
-2.4347588
-0.92629538
-3.3463665
-3.3454296
-3.836643
-3.8300592
-3.7253333
-4.4693227
-1.5598168
-2.8766405
-3.2011444
-3.4845285
-3.4701365
-3.9629973
-1.5364041
-3.8435505
-3.4212382
-3.120885
-4.0442874
-3.2456844
-4.0925807
-4.0556242
-4.1019333
-3.5677395
-3.0834345
-5.0800412
-3.5962218
-3.5527339
-5.1103894
-4.4830861
-2.4123084
-1.7455445
-2.2103597
-2.2569055
-0.4829179
-4.3710368
-4.1878983
-4.7940929
0.35132925
-3.4674871
-3.3297065
-1.3191872
-3.2945118
-3.9735492
-4.2591798
-1.9613592
-3.5979904
-1.0952119
-3.5582071
-3.2456845
-4.6029308
-3.3014144
-4.1841461
-2.6464271
-4.5651369
-1.8921213
-1.6671817
-4.2234469
-4.3342112
-2.5494328
-4.2594502
-2.7039646
-2.2224052
-2.800415
-2.6443622
-4.0649375
-2.9943515
-1.212065
-4.6687421
-4.1817204
-4.7675259
-4.3582955
-1.973573
-3.4157185
-4.3942869
-3.4032357
-4.1988771
-3.154045
-3.7075878
-4.2859111
-2.2523365
-3.1498221
-3.2577517
-4.3605649
-3.6430403
-3.9845952
-1.7837389
-2.7853315
-2.170137
-3.091528
-3.4529485
-2.1066183
-3.8935294
-3.0475356
-3.9898584
-4.1229839
-2.3671794
-3.9365189
-3.5859334
-2.6612195
-4.1354663
-2.9938309
-3.2908265
-3.7782247
-3.2929295
-2.6837323
-3.298518
-3.1629214
-0.67277005
-3.0864195
-4.3380645
-3.423346
-3.7301465
-1.5249974
-3.8466186
-3.848758
-3.8094067
-4.2639169
-2.5265643
-4.0243906
-3.0644842
-3.5634461
-4.3730035
-4.4795792
-2.7698923
-1.3691829
-3.340202
-4.4766317
-3.6319085
-2.394538
-3.5507597
-3.5764652
-3.0470671
-2.6648072
-4.2182939
-3.8669017
-3.2196438
-3.8932919
-3.6119187
-4.4098588
-4.7169764
-3.4573725
-3.9114442
-2.6516137
-4.039029
-1.4095784
-4.0512842
-3.3334038
-3.8393247
-1.5695267
-4.0078711
-3.2872687
-2.4502043
-3.6965791
-2.6876828
-4.0101897
-3.344964
-3.2952573
-2.9643687
-3.6803512
-2.0396853
-3.2557439
-3.232344
-3.8046755
-3.6424916
-3.2189346
-4.0464412
-3.8873313
-3.4358057
-4.5369645
-3.8011831
-1.6719663
-3.9141957
-2.1650675
-4.0796636
-3.6271358
-2.751934
-3.9699974
-4.3592847
-3.9686125
-4.2597442
-2.6167366
-3.4784744
-3.2678757
-2.9549068
-3.0785219
-0.79913156
-2.8000279
-2.8271001
-4.0302997
-3.6759959
-4.3822126
-1.8473732
-3.0004662
-2.4154943
-2.8401591
-0.69553881
-1.4491906
-4.2515174
-3.0133394
-3.9715206
-1.7286541
-3.3908054
-3.835708
0.10585797
-3.3826084
-3.9770265
-1.9733304
-2.2259704
-0.82233951
-0.23051899
-0.75477278
-0.75105205
0.042924609
-1.9472632
-1.9714871
-2.0647544
0.84314545
-2.9497948
-1.4152249
-1.9571712
-2.1010539
-1.3174935
-1.9582192
-2.6288929
-1.0137682
-1.9358052
-2.0518539
-1.7170011
-1.3936127
-1.4943889
-0.40680964
-1.2474823
-1.6979821
-1.3963518
-0.74795896
-1.2823869
-2.4347856
-2.8243509
-1.3007632
-1.5895897
1.2762997
-1.4924871
-2.4097017
0.59718049
-1.5284373
-1.3737971
-2.2526972
-1.1173538
-1.4253575
-2.2981954
-0.55241023
-1.2680257
-1.2345914
-2.8361341
-1.3162312
-2.4465862
-2.5753818
-1.7589785
0.75246219
0.3687589
-1.0720017
-0.5425084
-1.7478347
-1.3612999
-2.3880904
-1.4896621
-0.54964224
-2.0182673
-0.91471557
-2.3139529
-1.656561
0.35671047
1.5353876
-2.85393
-1.5485528
-1.3031465
-2.0669761
-1.4300216
-1.0501997
-1.4019591
0.81332453
-1.1692357
-1.479101
-1.0545822
-1.0414734
-1.4217028
-0.48348517
-2.9546983
-1.4982248
-2.574267
-1.3025035
-0.29228436
-2.0327427
-0.45560228
-1.4475028
-1.9630052
0.2425276
0.099274515
-1.930188
-1.732239
-0.65781764
-2.992541
-2.2736871
-2.2336584
-0.45210303
-1.1202198
-0.51248592
-1.3318355
-1.59984
-3.2667819
-1.8604869
-0.9265614
-2.2759457
-2.1310647
-2.3712973
-2.1281298
-0.61627131
0.10468453
-1.197272
-0.83865901
0.34067978
-1.9374848
-1.3222924
-2.6719759
-2.5469333
0.97134555
-1.5427159
0.35185047
-1.9277873
-2.7141468
-1.8926191
-2.3977877
-2.3496009
-2.4146079
-1.1923367
0.30104506
-2.7491046
-2.3343673
-1.1815949
0.22405131
-1.9835863
-1.1602268
0.060145761
-1.2311582
-2.537939
-0.71688202
-1.9909688
-1.121472
-1.1790549
-1.4347785
-0.13827331
0.28320415
-2.6444955
-1.8463259
-1.8675198
-2.5176795
0.022159454
-1.5006463
-1.868252
0.8410483
-1.7816337
0.12545843
0.22435255
-1.497576
-2.0016367
-0.52919569
-2.0870833
0.023516109
-0.3675438
-1.14606
0.89591029
-2.2838053
-1.0489532
1.1352625
1.5929739
-2.1958096
0.36268822
-1.6544953
-1.3547521
-1.977287
-1.3695568
0.7478674
-1.5639162
-1.439309
-0.78007448
0.3296952
-1.6102332
-1.4280535
-0.73071267
-0.94782996
-1.7657804
-1.6044504
-1.2578279
0.92532563
-0.90572876
-3.1883178
-1.4307259
-1.7341704
-1.5766579
-2.4995383
-1.2877661
-1.8089823
-1.1100397
-1.870374
-2.053792
-1.5249198
-1.7726915
-3.8543976
-1.1362656
-0.15606225
-2.6112264
-2.3981589
-2.9653559
-1.9033529
-2.5002499
-3.1209789
-2.1140915
-4.2267496
-1.9169491
-2.3166977
-3.1246406
-0.62875342
-2.7682156
-4.7573278
-4.0054703
-2.3996425
-3.4976732
-3.1661757
-4.3054131
-4.5875176
-4.0902159
-4.3297681
-4.2385065
-4.3605844
-2.2648747
-1.3600329
-4.0563065
-4.5754903
-3.7730267
-4.1391221
-4.5013909
-3.2850519
-3.6646108
-2.5652059
-3.4824572
-3.6606032
-2.9189979
-3.3605463
-3.5666005
-4.2239254
-4.3279322
-2.2330104
-3.0533929
-3.4704834
-3.7168025
-2.8340595
-3.9857084
-3.9388196
-3.114426
-4.4246553
-3.4298652
-3.4887134
-2.5785057
-1.3404733
-3.6007901
-2.2323968
-2.9385102
-4.1354464
-3.9867697
-3.4827231
-3.3332451
-3.023627
-3.9188277
-3.0681162
-4.0297027
-2.9839413
-3.7946474
-3.2251262
-3.7170599
-3.3819028
-2.8465266
-1.6033424
-2.2975115
-3.8662393
-4.0206522
-4.627501
-0.38128792
-1.804115
-4.4481606
-3.4547994
-5.0917593
-4.0758184
-4.7925215
-3.4569089
-4.2236202
-2.5392989
-3.9277671
-2.9094253
-2.4336126
-4.600107
-3.539836
-2.8758421
-3.9193353
-2.9895719
-2.7760855
-1.849362
-4.2021996
-4.2202414
-4.0797679
-3.0746872
-3.5714528
-2.5390243
-3.7399721
-3.3385022
-4.4824795
-4.3724158
-4.4667261
-1.229325
-2.8703865
-3.1190544
-2.681951
-4.1778257
-1.9899002
-1.3576648
-3.3757922
-3.0005959
-0.10539436
-4.4477424
-4.0799522
-3.8094612
-4.1277091
-3.3576268
-4.3307059
-4.0089458
-3.8766264
-1.8589857
-4.3802521
-1.6380443
-4.3931659
-3.7832735
-3.702464
-3.898929
-2.6406507
-4.4437719
-4.6000576
-3.6463339
-3.8617862
-4.2699454
-3.3182818
-4.3774067
-2.316428
-1.6930967
-2.9420344
-4.3041739
-1.0880898
-3.6012497
-3.7990333
-3.13788
-4.550643
-4.6563652
-2.8858812
-4.1224174
-2.2882235
-3.6316517
-2.906587
-3.2854517
-2.7634273
-3.7058289
-4.5123959
-4.437225
-4.1274191
-4.0566263
-3.6134638
-4.0990081
-3.0681199
-3.1432331
-4.1629228
-2.844764
-2.9704752
-3.4274081
-3.4648511
-3.5770485
-3.6072636
-3.8034243
-3.0888864
-4.5044627
-3.4485417
-3.8292905
-4.0294559
-0.92772017
-4.1756402
-3.5528796
-2.6373311
-2.7912172
-3.4240738
-0.86965471
-4.5236849
-4.0200099
-4.0119335
-4.2680956
-3.636509
-3.2964623
-2.475297
-0.99336888
-3.9557077
-3.3256504
-3.0929849
-3.1599368
-3.430665
-3.1188645
-3.4058055
-3.9614285
-4.5888045
-3.6081574
-3.6020925
-3.0593682
-4.7161222
-3.480616
-4.9501566
-4.9106014
-3.3478048
-3.7787226
-2.781249
-2.2858639
-3.3978146
1.6283885
-0.18707791
-3.6432477
-4.0933997
-3.5251263
-2.4011215
0.28711551
-3.1360366
-4.4421449
-3.1310042
-4.2517678
-3.6007307
-4.3140807
-2.6967513
-2.3730633
-4.0933081
-2.2915776
-4.0258416
-2.7262759
-4.2414571
-1.6385782
-4.0334709
-4.8425042
-2.9937192
-3.3902712
-3.9191762
-4.1406947
-3.6787431
-0.56002456
-3.8803737
-2.4061496
-4.4638589
-2.5287111
-3.5325768
-3.9887812
-2.6071478
-2.0900118
-4.035621
-3.613066
-4.0508284
-3.435121
-4.0732536
-3.8379623
-2.5508971
-3.2593589
-3.0521277
-2.0241576
-3.7138007
0.40850964
-2.3338651
-3.0019898
-4.212156
-3.4982948
-3.2076391
-2.8823587
-3.0544589
-2.9904605
-3.5700738
-3.847086
-2.9472398
-4.2405738
-2.5170714
-3.4556475
-3.6970107
-1.4944245
-3.2465417
-3.0059567
-4.6947833
-4.3766487
-3.8514627
-4.0683009
-3.9375844
-3.7916855
-0.11297427
-3.4054931
-4.0625085
-3.758212
-4.4913036
-4.228898
-3.0434235
-3.5328081
-3.1385245
-2.7247036
-4.0807419
-2.5101179
-3.7979874
-2.9739224
-3.6211799
-2.9044977
-0.93450807
-1.0366826
-4.3683577
-4.670029
-3.4657154
-4.4264161
-2.5926004
-3.9441606
-1.2330219
-4.0525743
-3.4917139
-2.9508188
-4.3876454
-3.8509154
-3.2239805
-3.3019005
-3.9591819
-4.4076642
-3.5526436
-4.117232
-2.5913321
-3.5707683
-0.68572971
-2.8300093
-1.4385848
-2.857088
-2.2319719
-3.543808
-1.4403274
-3.6078175
-3.2798752
-3.3012204
-4.1326272
-1.1555877
-4.0582182
-4.7769333
-3.5656887
-3.7425212
-4.1829081
-1.8773353
-2.1791658
-3.0408728
-2.6040148
-4.5321595
-1.7217083
-1.738691
-2.560023
-4.4309468
-2.7121701
-1.9942798
-3.5226995
-3.532549
-1.8566441
-4.1295719
-3.8965255
-3.8993885
-4.8254675
-2.9028117
-3.3352417
-1.7483232
-2.167262
1.0287813
-3.9946828
-3.7228944
-3.6487422
-3.4345192
-4.3859786
-3.7778199
-3.1500928
-3.007668
-2.4866519
-2.6536417
-3.1314853
-2.7178956
-3.8344949
-3.5142005
-0.49245401
-3.7449361
-3.38159
-3.793122
-3.8516793
-3.2094684
-2.1417313
-3.4018003
-3.214529
-3.8251991
-4.2192563
-4.6305743
-3.9274788
-2.8335209
-2.7520235
-1.3758863
-3.4534068
-2.6733371
-3.7989647
-3.6924616
-4.0883292
-3.5268109
-4.0617528
-3.5370367
-4.8958965
0.36649281
-3.5225005
-2.2373392
-3.7359206
-4.0998218
-3.3103386
-4.2138315
-3.5389937
-3.4947415
-1.9954643
-2.5700001
-4.400495
-2.7020991
-4.3645504
-0.3299322
-4.5698919
-4.4259084
-3.5436074
-3.2930661
-3.9693013
-4.3700141
-3.4454653
-4.0261302
-2.9603013
-3.8701665
-4.1832391
-2.736529
-3.7706276
-3.1685943
-4.5388923
-3.436333
-3.8656379
-2.9837307
-3.4385287
-2.3725972
-3.9875688
-2.6527887
-2.947144
-3.9818142
-3.7691755
-0.28448302
-3.2851297
-4.2197147
-4.9721319
-4.2319076
-2.4950947
-3.1525353
-3.1019982
-2.0698462
-1.0134441
-2.9194692
-3.1080994
-4.2035182
-4.4581938
-4.6364434
-4.1267726
-3.5152723
-3.2690441
-1.316167
-3.3257967
-2.8240217
-3.2639045
-4.0088728
-2.246015
-2.8637362
-2.9483247
-3.9803002
-3.1104868
-2.7983733
-4.2125911
-4.4194624
-4.1081753
-4.4602899
-3.5937753
-4.2028748
-3.5115393
-3.3226331
-1.6458086
-4.1145595
-3.3614268
-1.866264
-3.5073526
-4.65367
-4.5039598
-3.7680184
-0.48329208
-1.6144931
-2.9103287
-3.5632727
-3.2606949
-3.9081707
-3.8063531
-4.1945636
-3.2416705
-1.8731691
-3.9122608
-3.6634019
-0.56026862
-2.0084496
-4.0849897
-2.8241051
-3.0177577
-4.1749517
-4.0564942
-3.6079085
-4.4969804
-4.1332552
-4.3205358
-3.7503688
-3.0940484
-3.0499771
-3.6720292
-1.9008954
-4.0045516
-3.6129813
-4.5823017
-4.3351223
-2.1072321
-1.5604385
-2.7348293
-2.5594834
-3.8824223
-4.5309126
-4.395126
-2.5874071
-3.8431275
-1.9733254
-4.4419684
-3.8171481
-4.4542204
-2.3702094
-3.3834208
-3.7353604
-3.1665085
-3.4378619
-3.776014
-3.6918267
-1.2613169
-3.8862781
-2.917846
0.051570552
-0.92651269
-2.9984258
-3.6794689
-3.371169
-3.0400943
-3.2020443
-4.7522009
-2.5714427
-2.2133452
-4.2434251
-3.407605
-4.0573646
-2.0976524
-3.7949868
-1.9605721
-3.2361314
-4.4855597
-3.9593871
-3.9606599
-3.0366291
-3.1946598
-3.2486818
-2.0180693
-4.3298546
-3.8927307
-2.5490464
-3.715453
-2.3453435
-3.5224179
-2.4455686
-3.4795906
-1.3171738
-3.0484368
-4.5579011
-3.2064721
-2.957392
-3.4844426
-3.0405891
-4.055291
-3.7904986
-3.548896
-3.3835203
-1.8211578
-3.8502497
-4.0260003
-2.680968
-3.3462991
-3.3940306
-4.1326435
-3.9756889
-4.0459016
-1.381312
-2.6056676
-3.3807813
-2.4321636
-3.4950312
-1.8160647
-3.9503859
-3.8990454
-4.2346414
-3.904283
-4.3287908
-3.1815985
-4.3016939
-4.0738115
-3.8468063
-3.6196144
-4.2171096
-2.9768499
-3.3786345
-0.96192015
-4.2965898
-4.0969705
-3.1761253
-2.5231806
-3.9347303
-4.1376094
-3.935036
-3.8744335
-2.4540778
-3.8672266
-3.1598778
-3.6003507
-4.1718088
-4.6848545
-2.4137119
-2.7908483
-4.019883
-3.7148531
-0.12784999
-2.0193877
-4.1704413
-3.1240165
-3.6958763
-4.1735896
-2.3284801
-1.8529375
-3.5933014
-2.9395828
-1.0899753
-3.023062
-2.7404947
-3.5523817
-3.4110125
-4.4855485
-3.2863113
-4.1793778
-3.6274281
-3.1874693
-1.2598328
-1.1491221
-2.9497763
-3.5420913
-2.5714392
-4.4651231
-3.7825675
-3.7537934
-2.1316809
-2.9739918
-1.6144734
-4.3507855
-3.2249128
-1.02557
-4.2914335
-4.5705427
-4.1998691
-2.9694393
-2.2095454
-4.283163
-3.7802368
-3.1359136
-3.0962912
-4.4064696
-0.72698164
-2.3111383
-2.5833865
-2.7473754
-4.08793
-3.3796393
-3.8990436
-3.4915988
-2.9652746
-3.1292376
-4.737811
-3.3892236
-2.3235577
-3.2226462
-3.0461428
-2.0527476
-2.4187262
-0.96945084
-2.6930885
-2.9786176
-1.4164269
-3.0246288
-3.0201434
-3.4779663
-4.1639178
-4.487078
-1.7007828
-4.1709024
-4.5072371
-2.3679709
-3.1374427
-1.9733584
-3.2609575
-1.9233705
-3.9036189
-4.1895924
-1.9190388
-3.3775466
-4.5387777
-3.6561188
-3.5882781
-3.3088911
-4.4556212
-3.6275412
-4.0973959
-1.8474119
-3.6176949
-4.2305389
-2.4680007
-4.1945019
-3.6188804
-3.461901
-3.177406
-4.0379917
-4.0022281
-1.2891632
-3.6429969
-3.7563048
-2.7812181
-1.7490927
-4.4705278
-3.2558698
-3.9746107
-3.5756666
-3.3802947
-3.1218751
-4.0943882
-3.7837392
-4.1452297
-1.4141429
-3.4389562
-3.4726986
-4.3758977
-2.9474235
-2.8384112
-3.9145293
-4.1279558
-1.200319
-3.3669187
-4.1404787
-4.286241
-1.5163868
-4.2251336
-0.002035889
-3.4263145
-3.7830615
-3.6290913
-1.5175664
-3.1919451
-3.6459538
-2.7747395
-3.2942352
-4.2215886
-3.8787295
-3.2789081
-2.3593063
-2.0395864
-2.0989188
-3.9631457
-4.2887468
-4.6392275
-3.2270859
-4.5825887
-2.0804132
-3.4437398
-0.058180125
-4.0060988
-3.4043955
-2.8912664
-2.80358
-3.189121
-3.8792293
-3.6572099
-3.7684541
-1.7680105
-2.4184045
-3.7228035
-3.2721213
-1.7611074
-1.2364514
-4.1502217
-1.6533327
-4.2583317
-2.6549422
-3.9273141
-4.0657594
-3.9646004
-3.3534315
-2.7295873
-3.5323702
-2.5711497
-1.1961199
-4.2251565
-4.4291399
-4.2569898
-2.4109365
0.2550401
-3.8713014
-2.528043
-3.926304
-2.8311354
-3.2450671
-2.0340498
-4.3817639
-3.1571953
-3.7630178
-2.1988924
-3.1865591
-3.7240716
-3.205402
-4.1397734
-2.9731269
-3.1259097
-4.0294884
-3.9715612
-3.6921181
-4.0428259
-3.6881035
-4.1010438
-3.2129902
-3.1689247
-3.8131744
-4.2966071
-4.3991427
-4.2868175
-4.3872638
-3.7115464
-4.529897
-3.9720455
-2.493956
-3.5033391
-1.7100979
-4.2049304
-3.999786
-3.7247273
-2.7310274
-3.5555544
-4.4839037
-3.3806759
-0.71104465
-3.760751
-2.5060944
-3.6132391
-3.1261865
-4.6389478
-4.1370703
-4.2012078
-3.1060354
-3.810743
-4.0233859
-3.9004797
-4.2022137
-4.4045903
-3.6781374
-3.2001927
-0.74231998
-4.2765224
-3.0153926
-2.6916252
0.86747796
-3.2477425
-4.2423541
-3.7758485
-3.7913962
-2.7270273
-3.1854129
-3.8345214
-4.6168342
-3.3253648
-4.0323866
-3.8010545
-3.5799174
-0.71017197
-3.3342055
-3.2861929
-3.0707932
-1.6919491
-0.78002356
-4.4050479
-3.8662687
-3.4079208
-0.61027832
-3.5109133
-4.0070681
-3.4644954
-3.0400191
-2.5433446
-3.617822
-2.4950293
-4.4826178
-4.1404055
-3.8582258
-3.811947
-3.9534813
-3.5913243
-3.5266147
-2.1568085
-2.4011117
-3.4782095
-3.9731668
-3.903848
-4.579625
-1.8443124
-1.6214063
-3.2902951
-2.4471892
-4.4835035
-3.2033803
-2.6550655
-4.5187287
-3.7408773
-3.3757184
-4.8241462
-1.7992356
-3.0892121
-2.3079524
-3.4317282
-3.4201079
-0.46893373
-2.2100078
-4.1880892
-3.9713354
-4.1348878
-4.1697441
-3.7149782
-1.2810557
1.3540401
-3.0952439
-3.9034219
-2.928742
-2.9547886
-1.181543
-2.7374611
-3.4404696
-3.6678511
-2.6272956
-3.2574569
-3.3837826
-3.0716058
-4.0050204
-3.9630276
-4.417321
-3.9132748
-3.5978064
-4.5284767
-1.5688042
-3.8778464
-3.3983726
-3.14706
-1.5731288
-1.561619
-3.8740201
-2.3481268
-3.5454903
-3.4246938
-4.0468026
-3.9512541
-3.6692102
-3.8777923
-0.64821991
-2.3456688
-3.3692805
-3.5711822
-4.1763075
-3.4339137
-2.0968127
-2.9839256
-4.7067339
-3.8619222
-2.420486
-3.1388249
-1.5835472
-3.4558187
-3.5622966
-3.8216059
-3.1568997
-2.4978565
-3.8119489
-3.6941584
-4.2840453
-3.966596
-2.5546393
-2.3573656
-3.3746113
-3.8481583
-3.1553823
-3.8973007
-0.88384768
-3.3943563
-1.6442496
-3.4473684
-4.1556418
-3.7687323
-2.1061404
-2.2802888
-3.6251151
-2.5092857
-3.6677191
-3.7577263
-1.6909216
-3.8908257
-4.2517965
-3.3980169
-4.2440827
-1.8845819
-3.9790487
-4.2883612
-1.3962218
-2.9112316
-4.1577846
-3.1304416
0.29102684
-4.2531063
-3.3069226
-2.9617746
-4.0891927
-3.0997501
-3.948923
-4.0469859
-3.8120982
-3.9810941
-3.1395476
-4.3415076
-4.2550696
-3.2253802
-4.0602034
-3.7755511
-3.0580349
-3.7148281
-2.5854824
-4.5499222
-2.0118905
-4.603979
-2.2200573
-3.4927449
-2.8377154
-4.1522577
-4.2314382
-3.7204834
-2.1874379
-2.4279798
-4.5501376
-3.6073064
-4.3954846
-3.859986
-2.975011
-4.5494496
-1.027686
-2.1404493
-2.0218444
-1.0193337
-3.2207935
-3.0508488
-4.1785911
-3.6779316
-4.2850035
-3.7950389
-2.8315671
-3.138814
-4.000706
-4.4134796
-4.2256634
-3.1324934
-4.432942
-3.3710631
-1.7776427
-4.3117779
-3.2137979
-2.5721723
-4.4325546
-3.9629021
-2.013512
-2.6072261
-4.1246969
-3.0321219
-3.7430907
-3.9010779
-3.6590228
-3.9924047
-2.2420717
-1.5735748
-2.7558089
-3.5621461
-3.2729624
-3.7375756
-4.009258
-2.4198756
-3.570897
-2.8087346
-1.5175518
-1.898766
-2.512556
-4.2274899
-4.1102603
-3.1450202
-2.1083627
-2.8196311
-2.6911768
-4.1447914
-3.8932845
-4.2607861
0.30670332
-1.3472216
-3.3238789
-4.1453371
-3.041972
-4.2700147
-3.7217324
-4.0720742
-3.4479577
-0.23782038
-1.9909333
-1.521004
-3.5585656
-3.619259
-1.7571384
-2.9933384
-3.3530012
-2.1413476
-3.0978787
-3.5252108
-4.0953081
-2.8690162
-3.3427188
-3.3611086
-1.2951664
-3.791947
-4.1209826
-4.2630706
-3.9900206
-3.2968759
-2.9010336
-3.5596214
-2.7698199
-0.4151876
-2.0611348
-3.0763527
-1.2735232
-4.117301
-2.689391
-3.623841
-2.2060961
-2.4292679
-1.800232
-3.1347699
-4.4656307
-0.89761212
-3.6972
-4.2607155
-2.7718261
-3.0656901
-4.3434305
-3.7511964
-3.7524535
-4.1014653
-3.0963683
-4.634443
-4.3260564
-3.2600943
-3.2335355
-3.9517779
-4.2291003
-2.9038849
-4.2879738
-3.2175169
-3.1679674
-2.5224013
-2.5287468
-3.5174577
-2.8884242
-3.8481545
-3.0515348
-3.742831
-3.3864799
-4.5373198
-3.689457
-4.0743471
-2.0413052
-2.7004179
-3.3508485
-4.3421822
-4.2810251
-2.921082
-4.3840683
-3.5993186
-1.6820461
-2.9870684
-1.3578943
-4.2623775
-4.0539781
-3.9985611
-3.4385368
-2.0588184
-3.4645691
-4.2891818
-4.6332799
-4.025679
-4.0392902
-2.0695245
-3.5459753
-2.2818184
-3.7873926
-3.9632226
-3.2430578
-3.273379
-3.6839433
-3.294061
-4.0169895
-2.8861969
-4.0651879
-2.1158588
-3.4356369
-4.1194024
-4.0706768
-3.6656015
-3.098415
-3.4087818
-4.5151722
-4.2212745
-2.4471698
-1.4380697
-3.4056657
-4.290548
-3.6708066
-2.93554
-2.5799097
-3.356658
-3.3000818
-4.1452654
-4.149325
-1.9073801
-2.0656488
-1.9815111
-3.8372317
-3.8480322
-4.7266638
-3.9766879
-3.4372735
-1.1892691
-3.4963302
-2.0117596
-3.8213685
-3.2013033
-4.2007762
-4.0942783
-3.3981137
-3.2967705
-3.6810392
-3.9466082
-4.4885678
-3.7572974
-3.7317177
-3.1615049
-2.6719203
-2.45414
-3.165057
-3.6306554
-3.5221129
-4.4544529
-3.6406515
-4.6067711
-3.7564289
-4.4880795
-2.5502557
-3.7675218
-3.5490203
-4.2635083
-2.2021882
-4.5236044
-2.575019
-0.49998767
-3.7929832
-4.0271171
-2.6462146
-4.2619291
-3.6283223
-2.3846651
-3.7325591
-4.4139877
-3.3484646
-2.5219143
-3.6208169
-2.7596866
-2.773501
-4.1142931
-3.2362342
-2.7879681
-2.8828717
-3.9681219
-3.3035433
-3.8690735
-4.5357946
-1.7656132
-1.6695628
-3.5021719
-3.7517585
-3.7890053
-3.3921397
-2.0733764
-3.6945015
-3.4394811
-4.1509625
-3.6232048
-4.0729045
-4.3655549
-2.2411448
-4.1307503
-4.0956445
-3.6165738
-4.4720989
-1.4507757
-2.8864916
-1.7780011
-4.0407663
-2.3706188
-4.0408311
-3.9694856
-3.6647086
-2.3964298
-3.910488
-4.1296497
-3.831767
-4.5658738
-3.4511687
-4.1429752
-2.9283986
-3.8634897
-4.7008553
-2.1012689
-3.1909923
-1.8968724
-3.5108965
-3.4128641
-2.0506498
-4.0850341
-1.2381348
-4.2321408
-4.1789742
-3.7269982
-4.0854432
-4.4673204
-4.6416611
-2.1761866
-4.4880086
-4.3849939
-3.8965954
-3.2778172
-2.52261
-4.1716125
-2.0479727
-2.4392434
-3.5909691
-2.3547819
-3.9984647
-1.4486301
-1.5255844
-3.9969672
-3.5693527
-3.0259371
-3.8625783
-4.2464755
-1.3888362
-3.1438165
-3.9635148
-2.6039141
-2.9904262
-2.8236981
-4.3821432
-4.1026714
-3.1687191
-3.3332183
-3.77344
-2.6831573
-2.2135487
-2.0807552
-2.7264435
-3.6918224
-4.1593797
-1.7381722
-0.82314284
-2.7751075
-4.8477266
-2.0464219
-3.1701485
-3.8036267
-3.6569076
-3.3640588
-4.1814788
-2.3342045
-3.9408266
-4.7109191
-4.0584346
-3.8979246
-2.7239204
-2.8770211
-4.1858764
-3.3726785
-2.8622406
-4.632431
-4.3241529
-2.5892613
-0.29183611
-1.4757832
-3.9710722
-4.2184633
-4.2700661
-4.0061338
-3.7264507
-4.3287556
-3.9460827
-4.4983919
-3.6404005
-1.92887
-3.99233
-1.5689682
-3.8871182
-3.7823616
-4.1159791
-4.6437723
-1.9829103
-3.5415353
-4.2179847
-0.96514254
-3.1671977
-3.8211834
-4.6405379
-1.3197464
-2.9772569
-3.7563233
-3.088857
-2.2689156
-1.7192095
-3.7731695
-3.9458142
-3.4147171
-2.7576419
-2.9282275
-1.3761781
-2.3181353
-2.2178384
-3.8859917
-3.9890701
-0.16153337
-1.4546185
-3.1131045
-4.0494866
-3.2965459
-3.5514689
-3.0512367
-4.8292561
-3.7571287
-4.5206884
-2.8933584
-4.291498
-1.4751428
-3.7263243
-3.8077345
-3.8219188
-3.1831071
-0.62010376
-0.85187425
-4.5186149
-4.2902607
-3.76074
-0.74699394
-1.9787779
-3.8208019
-1.5279952
-1.1315366
-4.6259817
-2.8038816
-3.2940156
-3.0838164
-2.3995708
0.24704559
-3.6164782
-4.3982586
-2.3347608
-4.7658861
-4.6370726
-1.0669705
-3.3383351
-4.1354939
-3.584268
-3.3737715
-3.0518084
-3.9992078
-3.2659865
-3.0740069
-4.8097595
-4.1795065
-4.5486718
-1.9206488
-3.1304038
-4.0736111
-3.8914454
-3.0251143
-1.7946113
-3.9044576
-3.4779819
-3.5205906
-1.4331421
-4.2219032
-0.49613736
-4.9799502
-3.6301026
-1.59047
-3.6997288
-2.8821729
-4.1743705
-3.9474829
-4.0145432
-2.4382436
-0.11082959
-3.6323332
-3.3579518
-1.6811287
-2.5979313
-2.3964388
-2.32797
-4.2277248
-3.5085796
-1.5685823
-3.3150159
-3.3764266
-4.0240706
0.7989476
-3.5993144
-3.8928318
-3.5488178
-3.6158508
-3.3048982
-4.5602039
-3.9273055
-1.9454086
-2.9303803
-3.2252607
-3.0753799
-2.1377253
-3.5097394
-3.8316265
-3.384662
-4.3783071
-3.6040903
-3.3029783
-3.1869772
-3.9311423
-2.9114217
-4.5214915
-2.802114
-4.2895208
-1.9800394
-3.5689921
-3.5909911
-4.6785087
-3.5519847
-4.7815737
-4.0564123
-3.2648958
-2.1866267
-4.2273545
-3.6008944
-2.9574939
-3.0350108
-2.2344449
-1.5015827
-4.0936655
-4.0032193
-4.6239207
-3.8752536
-4.2206412
-1.5660045
-3.3861391
-1.1224493
-3.1012085
-3.1617604
-2.7059469
-3.7145022
-3.0301247
-2.335212
-3.1403271
-3.9419362
-3.621629
-2.5102661
-3.5158313
-3.9198634
-3.5622516
-2.1964992
-3.1977064
-2.6742845
-3.379114
-3.7927752
-2.8800122
-2.5794294
-3.849411
-4.993167
-3.3572039
-4.0744487
-4.0408873
-3.3818888
-3.6142039
-2.4383076
-3.7555144
-3.9664131
-4.0743319
-3.0103623
-4.059839
-3.9118309
-2.3246133
-3.3111816
-2.7940432
-4.0020487
-4.1593416
-3.9897839
-3.4778793
-3.0161859
-2.6836488
-4.1233998
-4.1416792
-3.172544
-3.3317121
-3.3504812
-3.3776318
-2.9753278
-3.8294571
-3.1221683
-3.7552151
-3.3911112
-3.148577
-2.6131284
-1.6536194
-1.2210548
-4.3392871
-4.6494026
-3.9038931
-3.97442
-4.1863765
-3.4718248
-3.444406
-2.7024247
-2.8584173
-2.865847
-4.2927076
-3.0564844
-4.3776945
-4.16224
-4.6797925
-3.0421669
-3.6688293
-3.1798533
-2.2950658
-2.7226336
-3.0612766
-2.697398
-4.1479267
-3.0972954
-2.8231261
-4.0496647
-4.2985042
-2.6776121
-3.2392738
-3.2969545
-3.8703867
-4.3536
-3.9321031
-4.614447
-4.1944345
-3.8695616
-4.5642983
-2.7740208
-4.3249378
-3.7084934
-4.6167924
-4.2087753
-1.9677641
-3.5684961
-3.3126977
-3.0258876
-3.0710715
-3.3031158
-2.9162564
-2.8019782
-4.4838908
0.44175171
-1.3564136
-3.9261085
-4.5129041
-3.1168243
-3.2035154
-4.4498238
-3.7293471
-2.4422459
-2.5409809
-0.79530029
-4.8529497
-3.7700381
-2.5074434
-3.4733605
-2.3861071
-2.7037365
-2.9817009
-3.3788697
-2.6773614
-2.3883853
-3.3967618
-3.439948
-4.4231895
-2.9745217
-4.2227073
-3.2374477
-4.3473576
-3.1348322
-3.3351432
-3.6541572
-3.558848
-3.8904021
-3.031183
-4.1802025
-4.1878369
-4.5932441
-2.8832666
-4.0943835
-2.3773588
-4.1100035
-4.2323173
-3.9077729
-3.375032
-2.4254969
-2.2413163
-4.0391254
-3.8463538
-4.061429
-2.9384942
-3.8813124
-3.4266903
-0.69672756
-3.9036049
-4.5915739
-3.1059596
-3.1041197
-2.3283364
-3.43302
-3.0662637
-3.6306614
-1.5210786
-3.6034574
-3.0613619
-3.4340418
-3.2716899
-4.8095853
-4.3538252
-3.1579498
-3.5572884
-2.6837262
-4.5041664
-4.2753103
-4.3342249
-3.2912628
-4.1519891
-3.7357601
-1.6210159
-3.3479464
-2.9214418
-1.9302579
-4.2996058
-1.1752939
-3.5317067
-2.2404328
-3.8073543
-4.0333695
-4.1496995
-0.38350686
-4.5254526
-1.9336432
-3.204752
-4.0283311
-1.0589376
-4.8497798
-3.2370685
-2.1108138
-4.4226029
-4.1510328
-0.70998922
-2.9171123
-2.5470842
-4.6883291
-2.9468983
-4.2465838
-3.8532103
-1.8413932
-4.1754864
-4.4242106
-4.5512643
-4.6171229
-3.0411942
-1.3059263
-4.4094101
-3.8195185
-3.7660762
-4.377955
-4.0513431
-2.9091081
-3.8614819
-3.1990701
-3.684171
-3.3725543
-1.5934043
-4.3516094
-2.6987746
-4.0276544
-4.293481
-3.9794142
-2.9673462
-3.6871436
-2.9482802
-3.8860979
-3.7526049
-3.1481626
-4.0411445
-4.8104381
-1.985595
-3.7197542
-3.9934882
-3.6392265
-1.8997083
-4.2566269
-4.0204189
-4.7246982
-1.9328531
-4.5396661
-3.3518515
-2.4585672
-3.7519178
-3.3385823
-2.2960325
-3.9164413
-3.8256141
-4.1147177
-4.3294009
-4.1274164
-0.25585023
-3.9725286
-2.1960384
-3.9687056
-3.2869646
-3.0062887
-3.5439154
-3.2485674
-3.4395929
-3.6962768
-4.3130105
-3.6049365
-4.3279682
-2.0615204
-3.9404366
-4.0143044
-1.0768345
-4.1128759
-3.6960134
-4.300871
-3.7079075
-4.1156098
-2.0393553
-2.7325077
-4.65033
-3.5853324
-3.4841407
-4.805264
-3.3348187
-0.75019301
-1.7588584
-3.1881791
-1.9576967
-3.6391785
-3.0147103
-2.5219904
-3.4206396
-3.5576744
-3.7414413
-3.4351476
-2.4965107
-4.1124997
-2.1376164
-4.2406386
-4.3164395
-3.6595606
-3.961988
-1.545388
-1.8321875
-3.0608611
-3.7164179
-4.0426358
-3.0125206
-3.5728816
-1.7486804
-3.8583666
-4.4002571
-4.4141478
-1.8579538
-4.3638097
-3.3197638
-4.0574463
-3.319846
-4.133453
-3.7643619
-4.0491463
-3.8136802
-4.4773373
-4.0661177
-4.615853
-1.673358
-3.7299595
-3.6410281
-3.7245098
-4.0403653
-2.614462
-4.0089174
-3.4567157
-2.8553152
-2.577094
-3.6644116
-2.8490725
-4.6156939
-3.8714444
-4.6247928
-4.3157719
-1.3104515
-4.4297438
-2.3048594
-2.6287442
-2.5136837
-3.6072593
-2.7837615
-4.3782505
-4.3239044
-4.5555823
-4.8181683
-4.5940889
-2.7528434
-4.4856385
-2.5914705
-3.6556803
-2.8858466
-3.6326312
-4.2952127
-4.2386313
-2.0347504
-2.2754511
-2.0145985
-4.4662723
-4.4971678
-3.5177377
-3.6762205
-4.0084612
-1.3044886
-3.82119
-1.8902706
-3.6505502
-3.5151921
-4.0814734
-2.8219654
-2.9263601
-2.3636427
-2.065495
-4.0202035
-1.7997885
-4.3833137
-1.9803796
-3.5888241
-1.1403717
-3.4143652
-3.529458
-4.4552934
-3.1297638
-3.0458573
-2.81113
-2.3447118
-3.3865843
-1.7844548
-3.3296598
-4.4711726
-4.2270811
-4.1170179
-3.2881563
-2.1777297
-4.2201361
-2.7989773
-3.2642135
-3.7531711
-3.9188611
-3.0115428
-4.1192139
-3.5479511
-4.1251806
-4.4633979
-4.573329
-3.8798903
-1.4402347
-3.7742183
-3.7843195
-3.5527387
-3.09102
-1.7671524
-1.6442986
-4.2687182
-4.2804652
-3.2798042
-3.4695476
-4.1973332
-3.3538965
-3.0846185
-3.4340701
-4.215201
-3.9816587
-3.2848818
-4.1568714
-2.1627414
-4.4134055
-2.8020717
-4.6942888
-0.054703669
-3.372859
-3.8077215
-2.2526217
-0.49142371
-3.7723796
-3.5206833
-4.0752647
-3.4925726
-2.0022536
-3.6993818
-3.0935351
-2.0145305
-4.0525729
-3.9898275
-0.60442075
-4.4369165
-2.2512628
-1.4265366
-3.1763897
-3.8299595
-1.8719251
-3.3042167
-4.3985133
-4.0648879
-4.0473358
-3.4229192
-3.9557134
-1.2796659
-4.3795298
-4.1365773
-3.6273369
-4.3521466
-3.2294819
-4.0407564
-3.8663894
-4.0281292
-3.1437224
-3.309913
-4.2631473
-4.3831646
-3.1540773
-2.5298122
-3.1222065
-2.9074314
-2.0427671
-3.122151
-2.8348941
-3.6821185
-2.6285653
-4.1399705
-4.4311346
-4.0403229
-4.2670909
-4.6188179
-3.5072853
-4.0087157
-4.3216535
-1.3378382
-0.19913997
-3.0403769
-3.1075348
-2.9994836
-3.7907406
-3.7962231
-1.1651797
-3.5286162
-1.5197631
-4.7291201
0.15811193
-2.1700721
-3.5325603
-3.9209253
-3.6756889
-3.7998881
-4.8529525
-3.9406188
-3.1993912
-2.715639
-4.3070767
-4.0107828
-3.583671
-2.8001429
-4.1593926
-4.3721919
-3.9485552
-3.1404865
-3.514006
-2.3903373
-4.2660642
-4.6637675
-3.3618648
-2.084617
-4.3669764
-4.1092677
-4.24705
-3.7354257
-2.7031517
-3.6819994
-3.6116304
-3.0053433
-3.1257203
-2.509091
-2.717852
-3.8406694
-3.6101696
-3.249016
-4.9319075
-3.4073753
-3.6996457
-4.5315475
-3.7140234
-3.521174
-3.5569894
-3.2807185
0.30220897
-3.8226918
-3.6010137
-2.7545073
-3.5996355
-3.6956533
-2.3470418
-3.9535666
-4.1120674
-2.7862881
-4.1243887
-2.9991656
-2.9937054
-4.0223777
-0.95571583
-1.9006675
-4.3728218
-4.1052007
-3.0285871
-4.2893714
-2.9424215
-2.6007079
-2.308741
-4.2025991
-3.7856647
-2.9651032
-4.0271348
-2.4836688
-4.152515
-4.3720996
-2.5809371
-2.5155389
-3.5361527
-4.2126288
-3.4499683
-3.0450266
-3.2526599
-3.2858185
-3.2946921
-3.6629664
-4.7337188
-3.98123
-3.2093002
-3.6444001
-3.370811
-2.7758451
-4.1905133
-2.7203673
-1.8381796
-3.346024
-2.8211313
-3.3003719
-3.0302586
-3.7079911
-3.9230022
-3.2567794
-3.4018604
-3.5217697
-3.4018807
-3.0299326
-4.5273597
-3.2082268
-3.953848
-4.1536002
-1.7133062
-3.5562145
-2.3019621
-4.3236781
-3.4991782
-3.1014255
-2.1545983
-4.1251353
-2.8224718
-3.1946073
-3.8970386
-3.2540498
-4.4383723
-3.3154885
-3.9956126
-4.0813875
-3.8132537
-3.4136905
-2.1510577
-4.1158402
-4.6348932
-4.2692478
-3.8532983
-4.0936069
-0.57755003
-4.6465381
-3.3709787
-4.2377866
-2.2505293
-3.0843791
-3.8859204
-3.9948172
-4.0449123
-4.1775366
-3.446574
-3.704943
-1.7842967
-3.7405361
-3.9011293
-2.7122682
-3.9203486
-2.0334711
-4.0754095
0.32152457
-1.5589394
-2.0415645
-2.3123816
-3.183403
-4.275313
-3.6773727
-3.6120405
-3.3951158
-1.4800055
-3.8059081
-3.8350807
-3.2215274
-3.6543774
-4.5963616
-4.16962
-3.7659429
-2.7393799
-4.1046887
-4.3608663
-4.1984803
-3.8976367
-4.1161228
-2.0056139
-2.029425
-3.6581389
-4.2742271
-3.9426851
-3.443469
-3.4043201
-4.0602604
-2.6308276
-4.6632904
-2.6173584
-3.1566245
-3.8770419
-4.1529216
-4.2787114
-2.4900126
-3.9303063
-3.7589935
-3.5606443
-4.7859791
-3.4328909
-4.245513
-4.3092765
-3.3648695
-3.4502056
-4.0740299
-1.2571539
-1.2037219
-1.1927888
-4.2000557
-3.5338593
-3.3801896
-3.4604629
-3.6518243
-2.8446904
-4.5509917
-3.6813136
-4.7208515
-2.7511032
-3.2605537
-1.3777676
-4.6071446
-3.598215
-3.3849181
-3.0485208
-3.7736823
-4.5329914
-3.6057703
-2.0146391
-3.630552
-3.1626471
-0.92975542
-2.8995287
-1.7682901
-3.2656672
-3.152746
-1.915357
-4.2041807
-3.436145
-3.1478854
-4.0622048
-2.912768
-1.1447887
-3.8935327
-3.4596748
-2.894766
-4.6292178
-0.66481734
-2.7057697
-2.9336848
-4.3403056
-2.8485041
-3.7485313
-2.2013409
-3.6090242
-4.3612988
-4.2792032
-4.2152208
-2.6722036
-3.5931983
-4.8325757
-4.396415
-4.5232921
-2.4190232
-3.7729914
-2.8019773
-2.4671624
-4.3170116
-4.0186303
-2.8142713
-2.4618622
-3.8499264
-2.6604887
-3.8078938
-3.8644523
-3.9598995
-3.6141584
-2.8687394
-3.8455832
-4.5572765
-0.79803326
-2.4997533
-2.0411414
-4.0188109
-3.9025185
-3.5874187
-3.6590589
-0.74764032
-4.6580496
-2.5561741
-3.2460619
-3.9776629
-3.9758853
-4.2961585
-4.9575909
-4.1628699
-4.2287242
-4.2912947
-4.3100424
-4.4231023
-4.3584378
-1.4091717
-4.1510623
-5.1324592
-0.88029366
-1.345993
-4.0630432
-2.637788
-3.7619183
-3.3677626
-3.1289224
-2.4678183
-3.9568766
-1.5222317
-4.2364414
-3.2307889
-2.615799
-3.0510357
-3.0731056
-3.5382474
-3.7601036
-4.112973
-4.6330104
-3.535134
-3.9323049
-0.84784256
-2.4536832
-3.3312624
-4.3914248
-2.3035623
-4.5171233
-4.0467356
-4.0937899
-3.4971696
-2.9319367
-3.5298646
-3.0839118
-0.57861335
-4.1348336
-2.6055404
-2.4172124
-3.1879391
-3.8060766
-4.8616104
-4.3987175
-4.133452
-4.4776528
-3.4651699
-2.7652917
-2.7458534
-3.3993031
-1.0392054
-4.1442835
-4.1771411
-3.8608573
-4.3986034
-4.1971344
-4.2199039
-4.2433864
-0.58774745
-3.3972076
-3.5368121
-4.3326993
-3.8318962
-3.9709329
-2.11452
-3.3962576
-3.6743126
-0.74424845
-2.2532649
-4.2882794
-3.9356713
-2.9545489
-3.6301735
-2.381029
-4.1090469
-3.7701652
-3.4220817
-2.5185471
-2.9261832
-3.2211605
-2.4315648
-2.2586526
-3.5182128
-3.6758819
-4.5412874
-2.1501357
-4.3383323
-2.9473979
-4.1156856
-4.1803726
-2.6862014
-3.7185637
-4.6104611
-3.0211797
0.50181922
-2.6737694
-3.0188787
-3.6363881
-1.3054732
-3.6501735
-4.2195573
-3.9571877
-3.9725683
-3.4087669
-3.3881859
-1.9653267
-3.14514
-2.8237225
-4.1764015
-1.0315222
-3.5492324
-1.3966352
-3.1012651
-3.4874976
-3.5743998
-4.1318677
-3.4467185
-2.6173002
-4.3978015
-2.4213989
-4.5344227
-3.4939821
-3.499682
-2.8075526
-3.4046529
-3.2676625
-4.6240855
-3.6305012
-3.2040346
-3.9139887
-2.5614234
-3.3702665
-2.4720138
-1.2211526
-3.991025
-2.9574447
-2.9941778
-4.0456031
-2.6314689
-1.7126717
-0.79671925
-3.0345106
-3.025219
-2.9206972
-3.0899234
-2.3084545
-3.4629062
-4.0077437
-4.3338647
-3.069076
-0.18061285
-3.9625992
-4.2794448
-1.9820534
-4.26505
-3.2139667
-4.0638411
-4.4875282
-4.4285862
-1.6969944
-3.2462341
-3.8269965
-3.9779802
-3.4608234
-3.4871653
-3.0352925
-4.0994751
-3.2895722
-4.2163925
-4.3286387
-3.842922
-4.2343284
0.42816245
-2.7375222
-4.3678876
-1.8974728
-2.8943954
-3.7040929
-4.4147493
-4.1041145
-3.996974
-3.7181649
-2.345608
-4.3887627
-2.0504634
-3.4316632
-4.2878966
-3.4506229
-4.0623645
-4.4280635
-1.8867035
-3.2561367
-2.2664912
-3.5887058
-4.0940229
-3.8134371
-3.8860498
-2.7870355
-2.9103057
-4.2862526
-0.42535229
-2.34088
-3.8533213
-2.2768373
-3.7554042
-3.8183752
-0.47662826
-3.7820691
-1.6552505
-3.3848928
-4.3521998
-4.796713
-3.9945896
-2.7989172
-1.6793834
-3.3017696
-2.5617076
-2.1425438
-3.2240806
-0.13517312
-3.7906571
-3.9643721
-3.1932811
-3.9760497
-3.784877
-3.8505782
-3.7373184
-4.225774
-1.1965577
-1.398786
-1.6628617
-1.9407353
-1.5915629
-1.6194405
-1.1178396
-0.91090516
-1.4833799
-1.9104433
-1.7545064
-1.8544955
-1.0005809
-1.278503
-2.1895166
-1.6640537
-0.910341
-0.94279122
-1.6517218
-1.8960303
-2.0882751
-0.38055324
-1.0563878
-2.1493712
-0.9082653
-1.9914335
-0.77127126
-0.65351802
-1.4405942
-1.0561114
-0.95192289
0.14384167
-0.62005325
-1.4185969
-1.9785593
0.28539453
-0.74080445
-0.81398711
-3.5443542
-2.306307
-1.9030773
-1.7417534
-2.7825386
-2.4410514
-2.2928386
-2.7265328
-1.2694711
-2.7872008
-2.1271859
-2.5779197
-2.2055258
-2.0171058
-1.3842164
-2.6832043
-2.7619166
-2.8843846
-2.3289002
-3.2371041
-0.96366035
0.27148302
-2.868737
-2.3835747
-2.4008838
-2.6226959
-1.2883297
-2.4392143
-2.299104
-3.5119188
-3.0614862
-3.492534
-2.1678403
0.14204473
-3.009781
-3.2302536
-1.3532121
-1.9175012
-1.1762372
0.10351522
-2.5794146
-1.64926
-1.2337574
-1.832536
0.87762838
-0.66270736
0.78151082
-0.62132704
-1.2941135
-1.1219677
0.1940108
-0.6231532
-2.0955508
-2.1360401
-1.4388052
-1.4736764
-1.3152371
-2.3059473
-2.7706012
-1.3015146
-1.8889922
-2.2481652
-0.70301179
-0.41051079
-0.93822501
-1.6405118
-3.1295015
-0.72518485
-2.51457
-2.1655419
-1.4741049
-0.87050664
-2.1798363
-2.3783162
-3.1123216
-2.4262678
-1.418549
-2.0249319
-3.0396191
-1.8034995
-2.3822936
-2.801528
-0.83079443
-2.7400313
-1.6536872
-2.6882525
0.24478152
-1.7715269
-2.536448
-0.95571112
-2.4006488
-2.475307
-1.9427805
-2.3423117
-2.4880754
-0.82436686
-2.003282
-2.9808375
-2.5335813
-2.1391825
-2.5339268
-2.1887497
-3.2426392
-2.0144219
-2.363874
-2.8982802
-1.4166928
-2.8243272
-2.5651625
-2.0287565
-2.5089949
-2.8880287
-3.6816566
-2.9517667
-3.2467099
-2.0634033
-0.4927316
-2.0744417
-1.4640467
-3.0942991
-1.3099328
-1.7339002
-1.0008464
-1.4164753
-1.7362243
-1.2519745
-1.474021
-1.1514377
-1.3584489
-0.57278518
-1.5445688
-2.3055833
-2.1234907
-1.4156101
-1.0354713
-0.83825385
-1.803759
-1.9475363
-1.4229462
-2.3527518
-0.966973
-1.6305458
-1.2375247
-1.1865079
-0.36391777
-1.8852133
-1.4339053
-1.0541623
-1.3010195
-0.95140609
0.39984171
-1.3955066
-1.6944572
-0.96069371
-1.7333147
-1.5170491
-0.97828444
-1.4121808
-1.8180965
-1.4695163
-1.8305278
-1.2340245
-1.3193713
-1.6365467
-2.0832507
-1.5493562
0.60460801
-1.4470221
-1.5131085
-1.5804909
-2.0044937
-1.4442442
-2.1242333
-2.311833
-2.4259305
-2.5429226
-1.9173105
-2.329203
-2.3696234
-2.1957629
-3.3764567
-3.3429216
-2.1464911
-2.4952583
-2.1283999
-1.5684639
-3.3597578
-2.3515551
-1.9461101
-2.076684
-4.0455071
-2.7607762
-2.5202032
-3.3343696
-0.64502753
-2.0346502
-1.3908879
-1.3800884
-1.1851458
-1.5526308
-2.041452
-1.2142453
-2.0907962
-1.9916279
-1.5785158
-1.368584
-0.50608887
-1.9634013
-0.89757089
-1.7666139
-0.94607311
-1.9981146
-2.7130578
-2.2860213
-0.94120599
-1.5325312
-2.1890085
-1.9973456
-1.6576252
-1.5484379
-1.154506
-2.5359759
-1.2713999
-1.3458952
-1.6979239
-3.4938468
-0.8373011
0.23647337
-2.072921
-1.7530011
-1.2388542
-0.72595881
-2.3563009
-2.258987
-1.9703477
-1.6601875
-2.5323422
-1.4694784
-1.4580499
-1.022251
-2.9264701
-1.6199316
-1.8976125
-1.3883554
-2.0527657
-1.9687517
-1.654666
-1.064779
-3.0072893
-1.2208702
-2.4934554
-2.1504896
-2.4378363
-2.3241675
-1.7930643
-1.6730722
-1.6279313
-1.3795124
-2.8925288
-0.55775317
-2.2643171
-2.0899271
-1.8719719
-1.7295632
0.6520016
-0.14291466
-3.5926977
0.29488498
-1.5898784
-0.20393781
-0.70508253
-2.3675928
-1.8908946
-1.8309234
-1.563337
-2.6114771
-1.5891188
-2.0430546
-2.5078582
-2.1917575
-2.2505669
-2.2289081
-1.7623227
-1.889979
-0.99465202
-2.6605629
-2.4974818
-1.0321902
-1.9992797
-2.1291383
-2.0771181
-2.3937458
-1.3564123
-2.2272583
-2.0745103
-3.1618222
-1.5565007
-2.389145
-2.1653113
-2.4101798
-2.1898899
-2.1917
-2.2225948
-1.9931294
-1.8081795
-0.70310761
-2.4061376
-0.69058174
-2.2059063
-1.7204487
-0.46644651
-2.6827411
-3.3012318
-1.649721
-3.4383287
-1.6804333
-0.69068728
-1.2480323
-1.8188913
-1.6068745
-1.8983472
-2.0211463
-1.9512464
-1.8917127
-1.4328209
-0.91773346
-1.8102858
-2.5713272
-3.2579029
-2.5833655
-2.6690515
-2.695942
-1.5196366
-2.2696235
-2.1459056
-1.0798174
-2.0801615
-1.8631974
-1.2428765
-2.2166218
-1.9269579
-1.8052108
-1.6874548
-1.7942532
-2.1538568
-1.9845967
-1.3331972
-1.7920808
-1.9655108
-2.0325855
-2.5858722
-1.8127544
-2.2505292
-2.0936797
-0.47252778
-1.6379337
-1.7000728
-0.91776917
-1.5277513
-1.2056948
-1.4794776
-1.2002739
-1.5304649
0.35367782
0.077211883
-0.035490301
-1.3247709
-0.32845129
-0.1626438
-1.5575419
-2.228079
-1.5396639
-2.2838825
-2.3443077
-2.6792723
0.20266622
-2.2784068
-2.439671
-2.3659664
-2.2604677
-2.0971311
0.0612796
-2.0311542
-1.8782171
-1.7403409
-1.2921724
-1.2736565
-0.75494286
-0.80359355
-1.7370251
-0.41428312
-1.5058856
-0.55190525
-0.88006584
-0.77676642
-1.1530355
-2.2727983
-0.61089411
-0.12547202
-0.96379947
-0.94677296
-1.0238559
-0.524069
-1.3045882
-0.60056609
-1.2012175
-0.16396175
-1.4776076
-2.7772771
-1.6146574
-1.1572426
-2.3080606
-0.85297701
-1.596103
-1.5286866
-0.63188714
-1.2726479
-0.9315217
-1.2483665
-1.7065581
-0.96783829
0.073011757
-1.733193
-0.90708397
-0.013939408
-0.94285216
-0.43737636
-2.5163114
-0.81283446
-3.0399232
-1.0137927
-1.5478915
-1.3187851
-0.78210958
-0.83621873
-1.5541224
-1.3166393
-2.158086
-1.1544623
-1.4529527
0.23692363
-0.9710952
-1.580585
-1.7166766
-0.83428341
-0.60039944
-1.0684014
-0.83231642
-0.91693607
-0.27800236
-0.83707169
-1.2310738
-0.71194088
-1.0313153
-0.87818605
-1.5479371
-0.90910248
-1.2122926
-1.2392753
-0.87967739
-0.85515642
-0.6979509
-0.75014463
-1.8246663
-1.2550388
-1.3580863
-1.4154328
-1.5674995
-1.5387977
-1.1311676
-1.154228
-0.74040898
-1.0129533
-0.60029822
-1.5038324
-1.0439074
-1.1704265
-1.9847851
-0.82190961
-1.9269429
-1.2035413
-1.6847283
-2.3375085
-0.41878759
-0.75592242
-1.8060494
-1.686848
-0.48425372
-0.55517052
-2.3201797
-1.1018124
-2.6830129
-0.53383326
-2.4089737
-2.1361957
-1.9833616
-1.5347463
-1.5787013
-0.85232
-0.95193055
-1.4051899
-2.1221886
-1.9271519
-1.5155598
-0.5826815
-1.5920937
-1.6662971
-3.6844626
-0.80728224
0.17657464
-2.3195733
-2.7642192
-1.2217166
-1.5442425
-0.80812531
-1.4454661
-3.3726373
-1.0428471
-1.3628995
-1.3297016
-1.5467744
-1.3964485
-0.24413734
-2.0915034
-1.0941362
-0.86421953
-0.8654991
-0.8215893
-1.9363975
-1.085559
-2.1474381
-1.1839843
-1.3848604
-1.5330573
-2.726924
-1.4811123
-0.73426517
-1.2584585
-1.7100299
-0.62770269
-1.8672983
-1.4670153
-1.2748384
-1.9063853
-1.6654849
-1.9674709
-2.0301138
-1.6515601
-1.829941
-2.302505
-1.328812
-1.8022579
-2.1003439
-1.7026945
-1.9234405
-1.8060343
-1.0554372
0.65542049
-1.5638603
-1.7742818
-1.2208828
-1.7303719
-1.43089
-1.8365453
-0.71823985
-2.9048109
-1.2637141
-2.0991306
-1.8239964
-1.4143098
-1.6476624
-1.2367753
-1.0870705
-1.3752889
-0.86395509
-1.6942775
-0.24838584
-0.8681865
-1.1297574
-1.7823135
-1.5480141
-1.860554
-1.4760542
-1.9448148
-1.8624622
0.59308986
0.49115664
-2.2086603
-1.9162287
-3.0261505
-2.4090462
-2.6035866
-1.709907
-2.2015962
-3.1183603
-1.839713
-2.3360364
-1.4385038
-2.1776497
-1.5136822
-0.8443254
-1.2808078
-0.67862368
-2.5079873
-2.2328864
-2.3346048
-2.8476541
-2.5241322
-2.8570546
-1.9501367
-2.721515
-1.7295844
-1.663506
-1.8681063
-2.0588873
-2.1826382
-2.7264577
-1.8112114
-2.6326052
-2.8231107
-1.5084426
-1.6881012
-1.7140427
-1.9624445
-2.0621797
-2.1426992
-2.1717297
-1.393205
-1.4836307
-1.303317
-0.83934783
-2.2855056
-0.33927353
-2.5445728
-2.2258713
-1.4070375
-1.6161091
-1.6429139
-3.0029493
-2.8664373
-1.9291446
-0.80941704
-1.4770239
-2.4873341
-1.2083121
-3.7027527
-1.3531898
-2.5450425
-0.78770345
-1.7562441
-0.99416088
-2.5319036
-1.2900874
-1.9595182
-1.6714346
-2.6093562
-3.7419838
-0.42552229
0.034571825
-3.6636243
-2.8476849
-1.6882534
-0.24373061
-0.79558229
-1.9162247
-1.7188078
-1.484809
0.38531007
-1.2073695
-0.91050375
-1.0113979
-1.6282415
-0.49128346
-0.71254736
-1.0221852
-0.91577436
-2.0643139
-1.8022069
-0.63749967
-4.0757275
-1.0905237
0.48733856
0.39647613
1.6975873
0.77831955
-1.9518076
-2.0288161
0.20468361
2.660597
-1.1065304
1.1223368
-1.5722341
-1.6083874
-0.7640599
-2.5370649
-1.5030202
0.9220087
0.15107405
-1.9633328
-1.4338332
-2.6364497
1.2057373
0.69188376
-1.9018996
-1.9278685
0.39248264
-1.9331338
-0.9007245
-0.84452435
-0.47261698
-2.7784386
-1.2636606
-1.5140582
-2.266076
-0.85949138
-2.6735774
-1.5717106
-2.6324876
-2.5033322
-1.3857119
-0.47096948
-1.6204531
-0.55667282
-1.1492968
-3.0028466
-1.7004329
-1.4634209
-2.4458534
-1.8048296
-2.726501
0.32145441
-1.6036379
-2.0572197
-1.6448613
-1.567968
-2.6221471
-1.7707078
-2.0908673
-1.5275394
1.2279941
-1.0959729
-1.3368517
-1.3643024
-1.2976213
-1.7909649
-2.3558918
-2.0446509
-2.6748496
0.12383925
-0.67749355
-0.002780355
-0.11168748
-2.4265357
-1.4244998
-3.5502172
-2.1763857
1.5514619
-0.45099375
-2.6743317
1.2581908
-0.8321296
-0.74593845
-1.0973851
-1.9331333
-2.577266
-2.2757743
0.033936272
-2.9498251
-0.7357498
-2.237833
-1.3500374
-2.2072568
-3.9515062
-1.3410159
-1.2046777
-2.7835076
-1.7121027
-3.521175
-1.1268579
-1.5029081
-1.6092543
-2.1238947
-1.5908767
-1.5998997
-1.2453702
-1.8373829
-1.0182875
-1.767079
-1.4020797
-0.78070776
-1.2693965
-1.3938987
-0.82344766
-1.5777395
-1.4208183
-0.9101972
-0.91380378
-1.255549
-1.5740171
-1.7001654
-0.9643012
-1.8374446
-1.1133267
-1.4229905
-1.4230079
-1.7262571
-1.2565621
-1.4265942
-1.2573302
-2.2929948
0.30756768
-4.0307091
-2.1377579
-1.8390784
-1.7938845
-1.6658227
-1.1066659
-0.76556048
0.36694553
-1.9262995
-2.3585644
-0.69678617
-1.7341452
-1.6663407
-1.2688824
-1.5026508
-2.114674
-1.3737053
-1.8016474
-1.6111015
-0.95879877
-1.0770063
-1.3912171
-2.2050307
-1.8420891
-1.7393427
-0.88041883
-0.9853415
-1.4486425
-2.7865887
-2.1125368
-1.5991814
-3.1526743
-0.83111331
-1.0683014
-2.7411538
-1.6982728
-1.3378716
-1.6220396
-1.7377965
-0.60542944
-0.63119385
-1.6766624
-0.89551435
-1.1026878
-1.2960875
-1.60228
-0.77288854
-1.5463123
-2.111186
-1.0323389
-3.4046347
-1.7231787
-1.8750789
-2.0360981
-2.2014129
-2.8918516
-1.7420339
-1.1648434
-2.5086151
-2.1290987
-2.0551288
-1.3640755
-1.5017624
-2.1507788
-3.1671006
-1.4981393
-1.7225259
-1.6518513
-2.0860729
-1.5046695
-1.3286439
-0.006133893
-0.33275275
-1.797477
-0.34194037
-2.8979783
-1.7991729
-1.7923239
-2.6087489
-1.6861748
-0.092218762
-2.7557841
-1.8563402
-1.5506986
-3.7441436
-3.0040794
-1.7771821
-2.2841138
-1.9190747
-1.9827127
-3.2579562
-1.0505825
-2.2497425
-1.4648699
-1.8353533
-2.0692792
-2.1136879
-1.9545384
-2.923218
-1.3207303
-1.3970845
-1.0422673
-1.5483037
-0.82857245
-2.1828418
-2.8792989
-2.3101903
-0.71480935
-3.2501982
-3.5356825
-2.453074
-2.5057642
-2.4902304
-1.9059123
-2.4265885
-2.5618334
-2.4598843
-1.7668938
-3.3148482
-0.23247306
-2.0730172
-3.0631571
-2.4887332
-1.957498
-1.0441523
-1.8400557
2.5162805
-2.5327613
-1.9312702
-2.2483865
-2.0761098
-0.11828326
-1.8750015
-1.7154337
-1.5040396
-1.866767
-0.95651404
-1.2432651
-2.1181735
-1.5861613
-0.84628331
-1.7524319
-1.4424296
-0.46265087
-2.4737133
-0.27204188
-1.0878839
-1.7838599
-2.2662908
-1.906637
-1.5133603
-2.8811154
-3.5095404
-2.4052457
-1.8844484
-0.78167894
-2.7784765
-2.8191508
-2.1162374
-2.2933022
-1.6625684
-1.8204597
-2.3003345
-2.3390133
-0.92244827
-1.6315657
-0.78229977
-0.61458334
-1.3454909
-1.1469467
-1.2144484
-0.86101749
-1.2565463
-1.1913639
-1.5227928
-2.0703703
-1.8096562
-2.6855486
-2.1252215
-1.3162917
-2.8387298
-1.7687623
-2.0888864
-1.779942
-1.9767589
-2.4600909
-2.5915422
-1.5005918
-1.4340129
-2.9205781
-2.2680168
-2.1029713
-1.2857745
-0.96190843
-2.0907056
-2.0186804
-3.141951
-1.1049258
-1.7548173
-1.8223474
-2.5962592
-3.6205204
-2.1767472
-1.3617253
-1.0971632
-1.647329
-2.0707939
-1.6427538
-2.3849539
-2.2486231
-1.7353985
-1.6505937
-1.7866071
-1.7603983
-1.5948753
-2.0664796
-1.1236403
-1.6363418
-1.4081007
-2.0454091
-1.3439903
-1.6094731
-1.6556042
-1.1473122
-1.5458528
-2.1420487
-1.0490345
-1.187826
-1.0648344
-0.70592228
-1.0319462
-1.423839
-1.3763282
-1.5587835
-1.0382125
-1.6932622
-0.24535844
-1.5634724
-1.7526663
-0.56031711
-0.81364035
-0.88001
-1.0075224
-1.4568362
-1.7426008
-1.4954007
-0.98497852
-1.3718729
-1.6268734
-1.1618969
-1.0984089
-0.73892728
-0.98235028
-1.3284763
-0.99444648
-0.48253155
-1.7621057
-0.69931034
-0.6269917
-2.8840981
-1.0342365
-1.8485492
-0.69184128
-1.7306504
-0.90767388
-1.6703719
-1.9896627
-0.57836964
-0.67751603
-0.096544851
-1.1088417
-1.0555217
-1.9011865
-0.72524234
-0.29558871
-1.0250935
-1.3623135
0.024876983
-1.8233542
-1.2616939
-1.8748586
-1.4633166
-0.72577415
-0.91388805
-0.77669513
-1.4233681
-0.18385285
-0.49019028
-1.0308895
-1.8281312
-0.97568032
-1.2801669
0.33871329
-1.0285069
-1.4189648
-0.91589383
-1.4732894
-1.376598
-1.5308349
-0.92234528
-0.85044607
-0.89691032
-0.9564945
-1.1791821
-0.89519364
-2.1532078
-1.5704933
-2.7128621
-0.16961986
-1.5809605
-0.69543343
-1.3324695
-0.33537552
-0.60018872
-1.7083099
-1.0264355
-2.3353617
-0.023169177
-1.6701393
-1.0945756
-2.4715647
-2.0709294
-1.0308569
-0.29049972
-0.88480178
-0.63129183
-0.74708822
-0.70870751
-0.71686235
-0.021721322
-1.938822
-0.39655609
-1.0746622
-1.4583391
-0.063080908
-0.50523715
-0.14277438
-1.4212595
-1.1589324
-1.0279078
-0.41141574
-1.0865544
-1.5746351
-0.55088876
-0.32965525
-1.4507607
-0.97373628
0.37758422
-1.0008013
-2.1171935
-1.2710905
-0.39524822
-1.7347165
-1.6124029
-0.17941669
-1.0687625
-0.72569043
-2.4647
-1.4810781
-1.5490802
-0.84482817
-0.85994944
-1.4370058
-0.81176019
0.22176212
-0.31295826
-0.59961816
-1.0720848
-0.74638262
-0.85976425
-1.1814733
-0.79022793
-1.3867073
-1.6904362
-1.086871
-1.3871238
-0.63141108
-1.6422435
-1.5905221
-1.6988597
-1.9100919
-1.2580873
-2.5742629
0.14836265
-1.7756372
-1.5165032
-0.880404
-1.6061561
-2.1250931
-2.8915558
-0.48356802
-0.14411993
-0.97079442
-1.4393545
-0.76203434
-0.3321627
-0.73233157
-1.9168581
-1.5055286
-1.2484318
-3.7220048
-0.30409644
-1.5073257
-1.9776574
-0.74962344
-1.1076713
-0.90237636
-2.4298551
-2.0684258
-0.93178559
-0.83232201
-1.7441291
-1.5300386
-1.4402465
-1.085749
-1.9262949
-0.98719733
-1.8566327
-1.2797429
-1.8646752
-1.4076611
-1.3930258
-1.5921579
-0.34628613
-1.2147848
-1.4026389
-1.6280578
-1.4141726
-1.7761381
-2.2062898
-2.3258093
-1.6943736
-1.7115256
-1.0039332
-0.82034256
-2.298493
-2.4708541
-1.5692354
-2.4950528
-1.172987
-0.74345598
-2.2796864
-1.70305
-2.3387899
-1.9237793
-3.6384007
-1.1528913
-1.9608714
-1.8488834
-2.0752473
-1.8551992
-2.6748171
-2.1181557
-1.4515641
-1.2521322
-2.6371436
-1.7135608
-2.35072
-2.4656264
-2.4661873
-1.5307384
-1.0188828
-0.9111361
-1.6819288
-0.82819821
-1.6310581
-1.3499931
-0.81580798
-2.2406935
-2.198701
-2.174795
-1.0085039
-0.73794912
-3.0863089
-1.6210676
-2.2543666
-2.1441475
-1.1490338
-1.7229889
-2.2815205
-1.3694299
-1.8530531
-1.6380069
-2.0383199
-2.099963
-1.2292313
-2.0913309
-1.4537454
-0.71511671
-0.31166457
-2.2962948
-1.795239
-2.2053144
-2.4728244
-1.6919687
-1.7164572
-1.2472709
-1.2148964
-2.0109785
-1.4708122
-2.6507184
-2.1792706
-2.8746585
-1.9152939
-2.2006276
-0.38847055
-1.3548016
-2.1398293
-2.3380174
-1.5766191
-2.1859164
-2.7329403
-2.4254687
-2.5454792
-2.8910621
-2.4139545
-2.6428473
-0.50742662
-1.8736114
-1.1667513
-2.0199541
-2.2602599
-2.7745639
-2.2686718
-1.9155578
-2.1440369
-1.9759886
-2.1324911
-1.4898968
-1.5939241
-1.7980215
-2.4070247
-3.5073663
-2.6802146
-2.3426934
-2.3034158
-1.912042
-2.8882251
-1.8942819
-1.792011
-1.405046
-2.0039077
-2.3690184
-2.8266182
-2.0864426
-1.6111587
-1.6226513
-2.2159758
-1.8486679
-0.24321872
-2.9053212
-2.3456744
-2.519477
-2.3993749
-0.99205243
-0.5862651
-0.343742
0.59720165
0.18008104
0.82189485
-0.23952487
0.70854933
0.35686581
0.9232215
0.16474537
-0.27353189
0.17231961
-0.56213034
-0.31688877
0.61559731
-0.7570707
-0.42178575
0.90924167
0.59610962
-0.18976403
0.90073812
0.91740338
-0.054762227
0.39741853
0.31418685
0.78650689
0.43567809
-0.62078454
0.57645384
-0.16403289
0.24623668
0.81103532
0.093375424
0.79767764
0.18496871
-0.23850315
0.80290988
0.46340569
0.18951022
0.54254268
0.75190118
0.56216264
1.5005057
0.24823216
0.53352474
-0.32102527
0.49455794
0.72946068
-0.029459798
0.5628812
1.4937617
1.3211152
0.93654219
1.505447
0.22034036
0.77535564
1.242007
0.22666667
0.82058328
0.69667211
0.10973024
0.69202099
0.71101335
0.86852589
1.1041975
0.83171111
-0.26303981
0.21765541
-0.72265087
1.269994
0.27094713
1.0319289
0.34805204
0.69484367
1.0432632
1.2705544
1.4060004
0.29822374
1.4460595
0.84861779
1.2086858
1.1221507
0.34861476
1.2374072
0.26822238
1.5819624
-0.52557058
0.2334114
0.047925054
0.39006857
-0.14741641
0.40548669
0.79087645
-0.50953799
-1.2798194
0.16931386
-0.46439448
-0.055801951
-0.58295464
-0.073565464
0.043505301
0.17621492
0.2613856
-0.24114376
0.20952503
0.44522676
-0.5780137
-0.13112955
-0.049964185
0.26822851
1.2437124
0.39025497
-0.87725344
0.50342638
-0.3935404
-0.61616408
0.61649073
0.34200692
-0.019645118
-0.75380803
-2.3964673
-0.57396924
-0.10421992
0.15404643
-0.41396121
1.4112493
0.17160075
-0.29607888
1.0478668
0.80531628
-0.34003571
0.32001071
0.4479495
-0.049152308
0.9003818
0.10325311
0.3068506
0.74381203
-0.57323165
-0.74586919
-0.56725497
-0.58746815
0.14783186
-0.25949944
-0.001752386
-0.99273862
0.80309201
0.45971568
-0.82963754
0.74991715
-0.94251771
0.24293387
0.23090843
0.12079691
0.30467231
-0.22009516
0.56687667
0.71691979
-0.62038326
-0.79992188
-1.6655081
-1.3055525
-1.3473823
-0.49028272
-0.9138909
-1.5464526
-2.258127
-2.5498262
-1.3062737
-1.35745
-2.3383123
-2.6815309
-2.0124845
-2.701499
-2.270394
-1.9587297
-2.2943646
-1.6538232
-2.3039821
-1.760688
-1.8290361
-2.4561555
-1.7093899
-1.5275832
-2.2215496
-0.89082419
-0.87088506
-0.99551736
-2.3574498
-2.3288684
-2.3614459
-2.5174287
-2.2666658
-2.4782021
-1.6593722
-0.4474361
-2.5215786
-0.83412796
-2.1142987
-1.8250943
-4.1771212
-1.9657098
-1.514572
-1.3486
-1.9955751
-2.6195709
-1.8876659
-3.1531259
-2.0916041
-1.0584906
-2.751321
-2.0888995
-2.9236615
-2.1369719
-2.8099643
-2.5718157
-2.8169125
-2.3886159
-1.7412036
-2.101233
-1.7451641
-2.2171549
-1.9620706
-1.9035681
-1.3553991
-2.8305369
-2.5784362
-2.2287681
-0.32626048
-1.7953742
-2.2344016
-2.0963312
-2.323888
-2.1599552
-2.8588978
-1.6780008
-1.3147017
0.52644611
-1.7364688
-2.1236393
-2.6506434
-2.8936431
-2.5138222
-2.2323598
-2.0959777
-1.8956704
-2.3875066
-2.1139362
-0.43777351
0.46104568
0.97558763
0.91450141
-0.19240845
0.262854
1.1394659
-0.28775606
1.2349521
0.40413949
0.69161776
1.3593952
1.0790901
0.1209922
0.98841377
0.18440911
0.46274426
1.1013887
0.88634296
1.2953143
-0.17167826
0.084714812
1.4061911
1.0025282
0.88884831
-0.035403736
-0.041900803
-0.11579216
-0.27854555
0.69271324
-0.104993
-0.19545414
1.1960495
-0.52851404
0.59982851
0.021792141
0.26808953
-0.2970167
1.2195922
-0.39833604
0.55628389
0.90616933
0.81257009
1.0983486
0.99577479
0.78261582
0.72708467
1.1557914
-0.13396686
-2.8951978
0.58701259
0.21802391
0.87651767
-2.184149
-2.0906756
-3.4584319
0.72076235
-1.8007662
-0.44857455
-0.21006656
-0.18337937
-3.7937014
-1.8140945
-2.1190664
-0.49490189
-1.2488007
-1.0662088
-1.5357304
0.18613326
-1.031351
-1.1615981
-0.96115609
-0.57321312
-1.3191891
-1.4950758
-1.2022468
-0.76466397
-1.1342859
-1.6926376
-2.9665857
-0.37149475
0.000644654
-3.0752806
-1.1384312
-1.3606409
-0.37880042
-0.48278581
-0.93345064
-0.85725686
-0.1087816
-0.73989259
-0.96325525
-1.195676
-1.1000234
-1.0488067
-1.4860347
-1.3936707
-0.66754354
-0.70603801
-2.0963183
-0.76506114
-0.82121153
-0.81366304
-0.37310996
0.36706347
0.49039082
-0.43315819
-1.3742651
-1.1580388
-1.2899026
-0.74037815
-1.5197318
-1.766696
-1.5501817
-1.8940224
-1.2842223
-1.6691074
-1.174278
-1.4056478
-1.6819191
-1.9363902
-1.2499686
-1.0777954
-0.53342325
-1.7598332
-1.1865571
-0.90724637
-0.42066654
-1.4239855
-2.1028418
-1.7210554
-1.7420883
-2.3179756
-0.78077197
-1.3259741
-2.1217584
-0.41243219
-2.1574807
-2.2547512
-2.7655745
-2.048639
-2.5286012
-1.8511569
-1.6512351
-3.3190519
-1.8304276
-2.0473539
-1.9382056
-2.0407394
-1.8015151
-1.532663
-0.754524
-2.9663102
-0.25188028
-1.9161383
-1.8710579
-2.5726099
-1.5949972
-2.5184785
-2.5863853
-1.6622143
-2.7116719
-2.0257971
-1.4272981
-2.85302
0.086888833
-2.406176
-1.7659084
-1.4809334
-2.4259451
-1.36582
-1.5123096
-2.1961093
-1.2603447
-1.47126
-1.3046901
-1.1568352
-0.97482721
-1.2524376
-0.078292504
-0.86855749
-0.98285901
-0.46805998
-0.45642004
-0.80844772
-1.6139316
-0.27913911
-1.7769974
-1.1451628
-0.90569357
-1.7883537
-1.5905712
-2.0283696
-1.465356
-1.8635275
-1.4806684
-2.3477066
-0.97178337
-0.28274397
-0.94683423
-1.4165069
0.089655636
-0.53472899
-1.1179277
-2.0221865
-0.6487216
-2.1336344
-0.48861143
-1.5491902
-2.794928
-1.8333404
-1.6890533
-2.0599703
-1.9862709
-0.99094811
-3.4050738
-2.8676281
-2.8397786
-2.5202247
