0.012975966	0.022007751	0.049400593	0.007309324	0.080699983	0.084465138	0.053039564	0.110526789	0.147974565	0.158047955	0.171887887	0.188011788	0.203805352	0.214403617	0.213791196	0.249757517	0.324624598	0.278592183	0.303337365	0.320192057	0.324479803	0.371287803	0.369109876	0.3991698	0.398781032	0.399141674	0.428607063	0.454849549	0.421690649	0.439298136	0.454091016	0.526432035	0.504300128	0.496181134	0.519540917	0.557314656	0.544280407	0.598138314	0.565583325	0.612591575	0.589649998	0.63494346	0.615678916	0.632957572	0.61244689	0.628736179	0.639251856	0.656764377	0.673841931	0.687074871	0.642541013	0.688998219	0.660848891	0.656567201	0.665090903	0.697380857	0.678233565	0.725597823	0.677398223	0.720515495	0.717610153	0.686014585	0.679306003	0.71688333	0.688033434	0.72357913	0.674489406	0.706090339	0.697417709	0.70972094	0.708876345	0.704384009	0.676526516	0.708993095	0.661190548	0.669912478	0.678672199	0.628392576	0.6502488	0.667661005	0.643064716	0.613609004	0.649727202	0.607722907	0.611027326	0.552829995	0.568338539	0.539385906	0.57635845	0.539809712	0.553011043	0.503412025	0.520083604	0.518053369	0.50291531	0.450088319	0.422269058	0.410303715	0.461235926	0.413884745	0.401380418	0.36068065	0.345020908	0.315244503	0.345766411	0.340718255	0.325448355	0.30853363	0.268519313	0.228240661	0.213824708	0.232108648	0.221795048	0.194519973	0.14654265	0.112434545	0.15476232	0.106070542	0.113992493	0.06728031	0.098728205	0.056029829	0.017545923	0.033053747	-0.025561899	-0.044856514	-0.024062914	-0.083168191	-0.068598274	-0.0818399	-0.134388114	-0.158421291	-0.156767426	-0.150741069	-0.152114566	-0.22875999	-0.225033358	-0.278891819	-0.270749481	-0.29805448	-0.272996739	-0.285205843	-0.301996585	-0.32273917	-0.372549948	-0.364845114	-0.376711443	-0.397925446	-0.40852003	-0.459080339	-0.455481372	-0.433563249	-0.462964751	-0.477589447	-0.492137138	-0.544803806	-0.502414781	-0.530091011	-0.531933743	-0.570557532	-0.536182708	-0.554598058	-0.539614367	-0.589661915	-0.583978978	-0.614783292	-0.593115842	-0.627952008	-0.667242932	-0.603385116	-0.663784255	-0.684164098	-0.633248357	-0.640679109	-0.634385997	-0.663697996	-0.671681774	-0.682507193	-0.660901244	-0.680821176	-0.658289394	-0.721629277	-0.702539448	-0.708446735	-0.702504185	-0.733129196	-0.709890737	-0.677486562	-0.665937203	-0.689514444	-0.65510009	-0.664340863	-0.662907304	-0.713974991	-0.676231598	-0.680417356	-0.683659674	-0.650924423	-0.66024625	-0.614438437	-0.604829232	-0.629632019	-0.609136303	-0.633944305	-0.574459175	-0.571447286	-0.595933844	-0.574761349	-0.600666997	-0.551846196	-0.548232458	-0.534108611	-0.482094948	-0.519895865	-0.480079155	-0.470787533	-0.468296981	-0.463358998	-0.45600219	-0.420985644	-0.396975038	-0.351635892	-0.376809012	-0.345200638	-0.345832154	-0.322568295	-0.324228709	-0.312763202	-0.29695715	-0.258981835	-0.215488866	-0.253884137	-0.228026402	-0.205565218	-0.169326025	-0.12294066	-0.116121722	-0.108115822	-0.120051382	-0.134765494	-0.070852128	-0.03662738	-0.074652706	0.022202847	-0.015708337	0.02948863	0.043594319	0.072578414	0.0343102	0.088389823	0.113763467	0.120598774	0.169040386	0.200881213	0.191398138	0.253899001	0.260394983	0.259676323	0.273300212	0.237711219	0.279625258	0.312423423	0.357771914	0.334477745	0.35964878	0.374823647	0.387875436	0.407066945	0.445987785	0.445436558	0.450260334	0.500929815	0.439098246	0.512597053	0.512697646	0.482507209	0.53112861	0.543140933	0.561254974	0.55035282	0.582277024	0.59976169	0.620109232	0.603811846	0.5886677	0.603374243	0.612587105	0.637085917	0.653711558	0.656515038	0.646150605	0.649369851	0.672125043	0.705287614	0.686550988	0.64100788	0.715368859	0.720563208	0.694869191	0.681778341	0.676944763	0.729356681	0.683262372	0.67437763	0.690297	0.707956294	0.696798527	0.681770601	0.701617244	0.696874944	0.670933252	0.693450287	0.658874398	0.65394007	0.685327421	0.6915594	0.638259837	0.602888622	0.612365013	0.62186379	0.603729389	0.58975172	0.612367252	0.616043072	0.572182816	0.567875389	0.547330305	0.553478957	0.535172871	0.527416164	0.518671254	0.490954372	0.513068813	0.48276561	0.468781324	0.451868088	0.470710731	0.419016986	0.438805409	0.389035118	0.356477763	0.344580032	0.358671759	0.309264659	0.343226241	0.303112579	0.273088539	0.220761814	0.244299021	0.225156746	0.263533433	0.167924038	0.153490816	0.138070268	0.136830567	0.127555028	0.133577576	0.080518771	0.03478286	0.098047152	0.069165946	0.013455216	0.030296215	-0.022880775	-0.066962376	-0.08478561	-0.079139501	-0.096310907	-0.111807631	-0.159297214	-0.21300726	-0.144142909	-0.198726614	-0.225375191	-0.237863308	-0.243438895	-0.277700333	-0.240238946	-0.282139801	-0.300091047	-0.340075276	-0.375414081	-0.359160857	-0.361794055	-0.381966514	-0.42432375	-0.41396857	-0.458582743	-0.454641325	-0.504252891	-0.47554682	-0.524240465	-0.518716011	-0.569872702	-0.511612063	-0.559694169	-0.529140306	-0.565718285	-0.585993645	-0.619016937	-0.580871591	-0.642395356	-0.674593399	-0.643601137	-0.63765984	-0.66590325	-0.658065714	-0.647577707	-0.619443947	-0.675770083	-0.687601543	-0.666279309	-0.677690383	-0.680761358	-0.730262509	-0.668420524	-0.731935921	-0.67546394	-0.703058843	-0.708265186	-0.712710423	-0.688765957	-0.672234621	-0.673513578	-0.713777863	-0.708747944	-0.693901762	-0.670737229	-0.692176614	-0.65720456	-0.652115754	-0.656566359	-0.65846025	-0.669434348	-0.634892152	-0.622445708	-0.646666052	-0.618175478	-0.624668742	-0.606228065	-0.636650451	-0.597054943	-0.579598855	-0.561691077	-0.534254737	-0.5155033	-0.520224826	-0.472057826	-0.530107309	-0.505647619	-0.482511937	-0.475531154	-0.429088882	-0.425128698	-0.4179657	-0.420334476	-0.333186769	-0.380047621	-0.3822201	-0.372252573	-0.295120589	-0.295932606	-0.303878624	-0.281722011	-0.234698076	-0.25265461	-0.198833495	-0.205467466	-0.192880411	-0.149384291	-0.101570651	-0.112248129	-0.079414748	-0.03274983	-0.05608942	-0.043884567	-0.060500894	-0.010199398	0.024982959	0.04679333	0.064041495	0.106799492	0.113220685	0.073288968	0.14096665	0.12916714	0.181164727	0.202123135	0.203749397	0.18215912	0.209162933	0.224521766	0.248403987	0.304471802	0.273516081	0.295941981	0.336846432	0.346988099	0.348225976	0.387545663	0.376333817	0.442552584	0.429955021	0.432883659	0.487174806	0.442552631	0.510030575	0.526481096	0.547000928	0.510697156	0.571989488	0.565563557	0.579433724	0.575009747	0.562295749	0.575753518	0.575995348	0.608220424	0.622387212	0.647507849	0.657648875	0.672803414	0.631247156	0.699384615	0.664980174	0.64637363	0.675813707	0.710047596	0.688071052	0.710160376	0.734180439	0.688722629	0.692285321	0.688531114	0.672386905	0.66544831	0.692499056	0.678654357	0.692511149	0.692835262	0.676758076	0.72008328	0.692960385	0.683604934	0.637982819	0.653273218	0.656954408	0.657831599	0.666449868	0.673338195	0.628916006	0.637614611	0.629245448	0.584614649	0.588136714	0.578418669	0.570769574	0.588802214	0.566215215	0.55818475	0.531902538	0.49441597	0.484868964	0.474629344	0.503006257	0.443745047	0.42566601	0.471550567	0.421920348	0.39622205	0.388133591	0.348974306	0.347905666	0.331644036	0.336603973	0.299636188	0.278805614	0.298448008	0.254482188	0.263350408	0.251690647	0.201068498	0.191112569	0.155189474	0.117371828	0.120358471	0.104191877	0.078638151	0.080290707	0.05358895	0.019154111	1.11E-05	0.004579913	-0.002741614	-0.079784204	-0.056259121	-0.108094316	-0.14237218	-0.116801173	-0.143253198	-0.184736322	-0.17497478	-0.226316786	-0.222707441	-0.232929059	-0.252679359	-0.287882866	-0.288198053	-0.314841165	-0.332037222	-0.374415645	-0.336872953	-0.392948403	-0.412669239	-0.443805427	-0.373081123	-0.45698391	-0.436957234	-0.472643971	-0.474669958	-0.526194927	-0.512571905	-0.533947522	-0.538579438	-0.52426467	-0.566409786	-0.584616358	-0.616656012	-0.598459662	-0.606845036	-0.671109639	-0.673570354	-0.621170799	-0.633978312	-0.669622776	-0.632562585	-0.650791052	-0.655322117	-0.685933204	-0.656105013	-0.681485096	-0.681030676	-0.684317142	-0.705419976	-0.697674505	-0.723014374	-0.684088526	-0.667649806	-0.710725893	-0.678276706	-0.701444407	-0.678945145	-0.719049545	-0.723690911	-0.704093489	-0.697135196	-0.683621122	-0.657820136	-0.690544031	-0.667077521	-0.676706994	-0.632793301	-0.640184875	-0.652549993	-0.630137652	-0.625339458	-0.575418765	-0.631951466	-0.605399232	-0.58285759	-0.545829733	-0.523747275	-0.553063323	-0.526645207	-0.528314176	-0.517039932	-0.496281991	-0.538214014	-0.507126942	-0.461363707	-0.44531011	-0.395830863	-0.394267775	-0.406351573	-0.370776844	-0.367010266	-0.310686446	-0.309189161	-0.311452062	-0.304937789	-0.288647014	-0.226557647	-0.268263814	-0.173925591	-0.209228449	-0.181345466	-0.125917953	-0.131138242	-0.13155731	-0.086317526	-0.068608662	-0.081623547	-0.03393228	-0.028064689	-0.014266673	-0.003462242	0.041978976	0.051149394	0.086046041	0.069240181	0.08576559	0.137503906	0.147198341	0.200394164	0.196161262	0.191803491	0.235905839	0.240449761	0.262622467	0.288428177	0.291564113	0.318697886	0.30341085	0.33309646	0.347726296	0.375727897	0.411153513	0.425307057	0.413996718	0.444124796	0.469230114	0.462289519	0.453739998	0.526367189	0.518299554	0.520874299	0.532382957	0.569536699	0.533393296	0.585649878	0.572898451	0.599396119	0.604921517	0.609976417	0.608980582	0.66186301	0.605780428	0.624396293	0.692658359	0.691671151	0.681197122	0.694061852	0.679436426	0.667094389	0.685461132	0.698329313	0.710887821	0.700129963	0.699110428	0.688223856	0.709613115	0.701178861	0.653571761	0.686941193	0.708399927	0.681435848	0.680745166	0.691038622	0.648888408	0.688897938	0.649028261	0.702834269	0.674903138	0.678575457	0.606000342	0.64229661	0.60780586	0.618909436	0.602031609	0.638372661	0.619396362	0.592609801	0.581839525	0.545422905	0.578290735	0.563024842	0.506097665	0.526124022	0.494440672	0.491644849	0.491703454	0.469780635	0.468158455	0.412496495	0.428339879	0.40264505	0.34016942	0.335384481	0.317937877	0.32907677	0.329193081	0.298926449	0.299427507	0.264391639	0.257007667	0.250641379	0.20269511	0.190026909	0.137939366	0.148926637	0.098171222	0.097639711	0.066105192	0.065799501	0.069097458	0.026499367	0.019931766	0.001583763	-0.047069126	-0.033146751	-0.069051805	-0.057781164	-0.11933911	-0.131008449	-0.087995755	-0.210579726	-0.162170638	-0.194774984	-0.253085816	-0.204407086	-0.289096538	-0.308645708	-0.306364528	-0.329522739	-0.360640962	-0.363535723	-0.369918993	-0.351604626	-0.369090651	-0.396633876	-0.408067818	-0.464212351	-0.447909809	-0.492382146	-0.485062114	-0.492462894	-0.51250112	-0.556979514	-0.557383365	-0.544160948	-0.562777046	-0.559190988	-0.584630281	-0.593335486	-0.585895988	-0.63174099	-0.633687208	-0.613781753	-0.670733684	-0.64727961	-0.673113154	-0.661451351	-0.65394564	-0.674345774	-0.701882718	-0.693870621	-0.673582187	-0.688459399	-0.680677371	-0.686643696	-0.699797541	-0.709419389	-0.69584097	-0.704971857	-0.712741975	-0.683486807	-0.725226183	-0.705922215	-0.713989753	-0.655695532	-0.683147506	-0.688248565	-0.714245868	-0.6734531	-0.692443389	-0.642804963	-0.63616817	-0.602719267	-0.651499559	-0.621792183	-0.587010284	-0.610721543	-0.600151676	-0.628803328	-0.560383678	-0.557096663	-0.557821666	-0.563808312	-0.493717037	-0.510507645	-0.509280752	-0.476276638	-0.487052705	-0.466565305	-0.416660167	-0.481255018	-0.420111149	-0.388617552	-0.36972309	-0.381944099	-0.323235969	-0.365363476	-0.318400174	-0.311091343	-0.288552957	-0.284738974	-0.246171722	-0.232923151	-0.192456447	-0.171702921	-0.17624524	-0.151444968	-0.12912233	-0.079841151	-0.110990711	-0.08250884	-0.056221841	-0.032742345	-0.025816691	0.014643456	0.0129991	0.070759757	0.057672968	0.084484931	0.1366554	0.110322409	0.099564547	0.166309445	0.172700267	0.185263561	0.23683429	0.275554261	0.264168414	0.279356504	0.314902089	0.276204113	0.329329141	0.324919726	0.381442268	0.399247522	0.3955203	0.398455685	0.44688984	0.464341759	0.437206386	0.466068265	0.509621378	0.48853346	0.524863308	0.520054043	0.516956506	0.540131245	0.577843631	0.602123707	0.599573171	0.614190831	0.649303979	0.596537663	0.664360422	0.639554494	0.676411876	0.618343052	0.660247928	0.674067605	0.684013722	0.665613173	0.680176256	0.708122914	0.684440181	0.692861629	0.693031175	0.699506553	0.683254468	0.697176229	0.724218306	0.689952906	0.746386501	0.670120534	0.725690396	0.722239425	0.708947195	0.684114416	0.697318068	0.702640867	0.669809348	0.690064459	0.689607088	0.658824176	0.650636768	0.650829458	0.615885968	0.628428468	0.642438939	0.606323314	0.603985369	0.54920807	0.569528129	0.550474082	0.548525494	0.509014909	0.541569797	0.534525243	0.527259204	0.470883321	0.479656714	0.449133798	0.428543671	0.435471793	0.376251874	0.408871493	0.364292291	0.399964702	0.316164464	0.321750775	0.30350165	0.292637646	0.29038622	0.281957661	0.220237056	0.234753662	0.157068433	0.204283826	0.168085612	0.156177909	0.133204127	0.118406234	0.070381179	0.070558719	0.054002845	0.019040374	0.004819153	0.002685245	0.008675764	-0.027035197	-0.069636461	-0.104529018	-0.077822756	-0.087635447	-0.179615475	-0.135474743	-0.17240997	-0.163536107	-0.231677885	-0.2803351	-0.210770568	-0.221106244	-0.286165897	-0.332653886	-0.303707298	-0.345305573	-0.366888591	-0.350075847	-0.374669478	-0.40777481	-0.425400771	-0.41883243	-0.451528145	-0.454144614	-0.490147693	-0.508723878	-0.512597649	-0.505632376	-0.550203711	-0.549872675	-0.528733744	-0.586473121	-0.575593441	-0.574701708	-0.618981423	-0.604021235	-0.650146216	-0.624602244	-0.637081969	-0.607779433	-0.667247297	-0.620656867	-0.673270238	-0.662253966	-0.640356727	-0.683620212	-0.662558287	-0.693364158	-0.667424607	-0.675849125	-0.698679829	-0.695381383	-0.682754733	-0.720563914	-0.683300065	-0.700430187	-0.697663105	-0.717266753	-0.682064374	-0.684062146	-0.669848084	-0.729956639	-0.704587718	-0.690133874	-0.652020475	-0.688755052	-0.687137491	-0.643484898	-0.637254041	-0.622577593	-0.656538451	-0.635692742	-0.609773149	-0.60236829	-0.565166166	-0.575235138	-0.580478103	-0.568253649	-0.547757355	-0.518849597	-0.504313292	-0.489221726	-0.48421526	-0.476189046	-0.448747957	-0.434672517	-0.442782781	-0.406783775	-0.386709828	-0.35789904	-0.303588094	-0.380370871	-0.33209297	-0.340695146	-0.31669072	-0.279578655	-0.276003707	-0.269335196	-0.230999922	-0.203162401	-0.217986638	-0.154579969	-0.144175909	-0.150658842	-0.106473886	-0.069526838	-0.084955588	-0.042238394	-0.04607582	-0.032676077	-0.05299184	0.005217647	0.052503626	0.066411599	0.077573469	0.058129131	0.117912639	0.132576579	0.125593599	0.169643086	0.191205416	0.216086097	0.199142128	0.211750146	0.313771117	0.287787805	0.354319522	0.294130958	0.329237998	0.357078569	0.342672802	0.384396679	0.414699819	0.44841382	0.415159744	0.46592993	0.481131353	0.480554647	0.486511042	0.470022954	0.543544957	0.492245069	0.572116104	0.529376625	0.591840393	0.560828632	0.600813385	0.613481026	0.595554329	0.602964963	0.585760942	0.608438339	0.667555454	0.690723982	0.647271881	0.652631889	0.636069935	0.664982742	0.657004005	0.673131465	0.701063195	0.69810966	0.670626566	0.666672925	0.692892492	0.719581227	0.727074793	0.696627337	0.692263417	0.738354147	0.684488781	0.713684021	0.690465708	0.690638962	0.662600031	0.673351649	0.699103738	0.726790334	0.668540661	0.660963518	0.655337067	0.657129036	0.631141052	0.625135861	0.617962198	0.584051071	0.631594304	0.601504563	0.587052825	0.591499007	0.565694485	0.559800637	0.584704386	0.479367033	0.532485983	0.486979563	0.456039447	0.495535941	0.471251266	0.433748079	0.449951311	0.450956588	0.40652355	0.398569301	0.371756178	0.331994874	0.355595045	0.328074814	0.328058502	0.297950573	0.285086749	0.25711818	0.21409312	0.237714908	0.228155935	0.186855376	0.134500697	0.15808934	0.128908848	0.116948721	0.116175126	0.057604933	0.111003802	0.028137973	-0.01836274	0.02013024	-0.060392116	-0.028853977	-0.088122175	-0.090017143	-0.112788624	-0.115659457	-0.127644416	-0.186988023	-0.158803014	-0.174430871	-0.20172476	-0.206826825	-0.282464434	-0.239709949	-0.264376683	-0.299092921	-0.340264253	-0.347454992	-0.373184048	-0.351759991	-0.42063866	-0.354424316	-0.40669364	-0.406254838	-0.433646476	-0.408977591	-0.475831223	-0.48929584	-0.519961707	-0.513904139	-0.534591201	-0.504467782	-0.548735453	-0.595906934	-0.580175438	-0.585628628	-0.603130272	-0.587879378	-0.592273804	-0.598905266	-0.638560761	-0.71233597	-0.668415052	-0.688533057	-0.646962248	-0.633152902	-0.673279273	-0.660318271	-0.681151212	-0.669206703	-0.675821871	-0.725742185	-0.693583546	-0.689686924	-0.674366116	-0.710637754	-0.676537888	-0.711077455	-0.71381948	-0.698581554	-0.688316944	-0.741381622	-0.681393926	-0.681727532	-0.67908912	-0.684652699	-0.717740892	-0.71650377	-0.679193927	-0.68767844	-0.65853703	-0.628870938	-0.62590811	-0.610444159	-0.633391185	-0.636629752	-0.623570322	-0.61566217	-0.576818109	-0.595675611	-0.547245023	-0.534982323	-0.547139876	-0.539440294	-0.489465921	-0.522684323	-0.450024475	-0.476095437	-0.438164589	-0.440473266	-0.438334492	-0.430957422	-0.373065077	-0.393110738	-0.36524147	-0.370708042	-0.34433352	-0.317004059	-0.296732609	-0.329832916	-0.287240916	-0.288085397	-0.291751242	-0.210377424	-0.205008517	-0.199262735	-0.163325151	-0.183504237	-0.135343155	-0.151335168	-0.103609231	-0.062473921	-0.088113045	-0.080910294	-0.038933277	0.001778617	-0.005325212	0.012694316	0.021566481	0.105893124	0.075875315	0.098135614	0.120226704	0.141182156	0.156534717	0.166370342	0.153984881	0.203470238	0.199821155	0.283019847	0.25794598	0.280068314	0.272405066	0.332592979	0.326690361	0.332293469	0.362090663	0.362367118	0.379396836	0.380961606	0.43908162	0.418477557	0.430311659	0.455846922	0.483027531	0.511354108	0.494577089	0.483258003	0.511410983	0.537086519	0.559949031	0.575251872	0.565476283	0.577076264	0.584850317	0.599570734	0.579905094	0.608910293	0.639327694	0.621865907	0.684703363	0.630623765	0.661960173	0.676134592	0.68363765	0.662983215	0.689875948	0.691966542	0.692907064	0.664044384	0.715841774	0.671798503	0.662591213	0.693743148	0.686184437	0.705753192	0.722321287	0.69755551	0.735614207	0.728452092	0.67266317	0.673658243	0.706963388	0.712829956	0.650907384	0.682659178	0.67166313	0.657893779	0.706963551	0.667971153	0.634940785	0.613737082	0.640778981	0.609223232	0.607997565	0.612048654	0.654730882	0.577212514	0.532703221	0.584254319	0.55830128	0.567773395	0.505419056	0.514646592	0.516654061	0.482917319	0.48394401	0.501699365	0.44823126	0.426479855	0.415999143	0.371877598	0.402926344	0.37056037	0.36368703	0.355209378	0.347409148	0.317629782	0.312006802	0.263150622	0.291042049	0.229627786	0.236764416	0.216639645	0.221671698	0.166863832	0.154437117	0.120351798	0.166070147	0.10980709	0.08841854	0.123464159	0.041961108	0.066106764	0.013112903	0.01654954	-0.028825627	-0.055236217	-0.05623124	-0.066090559	-0.090134195	-0.13892791	-0.116418387	-0.153170214	-0.166766557	-0.190040702	-0.162711718	-0.215765388	-0.203708498	-0.246282069	-0.239185843	-0.30180435	-0.281249486	-0.310523156	-0.330090891	-0.352844125	-0.297874227	-0.377931547	-0.390526804	-0.390779988	-0.392485753	-0.395207007	-0.421518359	-0.444285964	-0.481830415	-0.473631692	-0.518292921	-0.50563858	-0.535901739	-0.555919372	-0.528377286	-0.560112801	-0.571777669	-0.573438005	-0.545608328	-0.582520806	-0.619001932	-0.624633629	-0.617584959	-0.633262121	-0.618443716	-0.637605355	-0.645296735	-0.606176715	-0.669051827	-0.679054318	-0.681210853	-0.652588859	-0.689615607	-0.68983443	-0.685813181	-0.678710592	-0.736922635	-0.731895524	-0.6709734	-0.685984026	-0.688803292	-0.735478355	-0.661641519	-0.677874375	-0.712935636	-0.702291079	-0.702748464	-0.660026054	-0.692148832	-0.657047414	-0.664998281	-0.668893049	-0.654787169	-0.665459727	-0.646273337	-0.66091208	-0.64240523	-0.630484557	-0.602627351	-0.617510801	-0.644454921	-0.57909129	-0.613715925	-0.597745059	-0.548029512	-0.565003019	-0.532505253	-0.553334903	-0.53825539	-0.54588618	-0.476181049	-0.517013195	-0.539393755	-0.436781165	-0.445488511	-0.465734464	-0.439005531	-0.413748377	-0.404406679	-0.382380101	-0.369533786	-0.380860811	-0.333557551	-0.337388315	-0.331283689	-0.323549899	-0.276204408	-0.273223885	-0.23760607	-0.239963664	-0.223196531	-0.197047962	-0.13897481	-0.177544594	-0.168239291	-0.129571235	-0.109763399	-0.097807953	-0.044608452	-0.084202822	-0.039703648	-0.046703719	0.005255994	0.028377844	0.056224296	0.024750109	0.048052065	0.071127899	0.088978887	0.109409726	0.107605699	0.184904192	0.174046469	0.199524269	0.170084021	0.180092545	0.218703868	0.22599245	0.247108621	0.253164356	0.291954314	0.303580544	0.318838068	0.327852233	0.360368305	0.361813996	0.411850375	0.397862044	0.428267882	0.421333565	0.427370579	0.487162072	0.473902452	0.455750789	0.485864946	0.522262818	0.489502982	0.548401268	0.534476713	0.545994451	0.568755974	0.558305681	0.575500887	0.554017169	0.599827975	0.597808779	0.597916485	0.600572028	0.606456323	0.672395984	0.672043544	0.653316251	0.703982649	0.648640006	0.658851643	0.694692731	0.687528167	0.666152793	0.690924626	0.704059756	0.672295698	0.675236547	0.677726198	0.712495123	0.693290204	0.696164914	0.714477098	0.734404843	0.676481977	0.709770402	0.705844719	0.702951234	0.689913163	0.669760217	0.655910541	0.652100348	0.685999815	0.686033389	0.67828524	0.700114321	0.663531584	0.662748211	0.634729113	0.638227151	0.643896901	0.623142296	0.614388062	0.612912956	0.600891467	0.61002573	0.596141988	0.551511717	0.550992681	0.56115304	0.532354681	0.502836769	0.546366652	0.498774864	0.501417436	0.475043105	0.479056913	0.435449765	0.434462731	0.415291861	0.377031906	0.390611169	0.365715052	0.416363662	0.377080482	0.384258623	0.318983439	0.328174403	0.327326801	0.297243039	0.250811996	0.249786624	0.247109857	0.231750556	0.211528168	0.167638695	0.191142419	0.129980351	0.149940748	0.116342364	0.093001085	0.117134968	0.058695719	0.060168297	0.078009747	0.018051798	-0.002777887	-0.030053424	-0.015169418	-0.028296938	-0.034850981	-0.098606329	-0.079265687	-0.11487913	-0.140073215	-0.116049875	-0.160483816	-0.203630323	-0.216206891	-0.209279066	-0.258569172	-0.239019283	-0.261466906	-0.254877073	-0.289164146	-0.331061917	-0.343475826	-0.339248509	-0.324599256	-0.370108607	-0.351081018	-0.40868384	-0.366295521	-0.399588272	-0.441948155	-0.43422515	-0.456564806	-0.473296739	-0.472601003	-0.514327449	-0.483368458	-0.506109765	-0.531775835	-0.536391586	-0.552502966	-0.577787068	-0.578173889	-0.531316908	-0.5825329	-0.582921315	-0.649244989	-0.593283965	-0.613136497	-0.59303164	-0.599783864	-0.65959706	-0.634991167	-0.662538808	-0.629825133	-0.670562934	-0.671868075	-0.68476089	-0.673826819	-0.655514179	-0.69890758	-0.662699213	-0.672749003	-0.72379036	-0.709837464	-0.710245727	-0.667289571	-0.721108379	-0.704451864	-0.724104734	-0.701918002	-0.717479027	-0.707164568	-0.700546599	-0.682592807	-0.671189439	-0.686095008	-0.690658417	-0.689596261	-0.697808462	-0.662682154	-0.672171818	-0.702404435	-0.667241151	-0.640394327	-0.665870545	-0.63852981	-0.588576236	-0.601631575	-0.626846274	-0.618690094	-0.616972146	-0.607203296	-0.604140511	-0.576390277	-0.594647209	-0.600446033	-0.542215186	-0.534141125	-0.522077504	-0.531404609	-0.530822262	-0.481754303	-0.466615743	-0.46944352	-0.409867926	-0.435899877	-0.45649214	-0.43381965	-0.430213079	-0.383864145	-0.380885592	-0.312084004	-0.354204187	-0.354542122	-0.35508785	-0.311956276	-0.304411132	-0.274698577	-0.229918792	-0.253942618	-0.248165357	-0.246845114	-0.204148834	-0.184220883	-0.192306575	-0.155898674	-0.183127391	-0.129567132	-0.124392966	-0.097994732	-0.083504494	-0.054564295	-0.055986924	-0.084540911	-0.013252271	0.004923057	0.020588219	0.025790209	0.05100981	0.05871174	0.08129654	0.097141019	0.11644827	0.121262049	0.162512971	0.184531115	0.186431401	0.18694773	0.184114763	0.241053872	0.275727577	0.262790437	0.244637327	0.304901754	0.298159474	0.303349046	0.31633026	0.331843453	0.340397713	0.353712028	0.414792948	0.403965791	0.456239371	0.447120383	0.442371115	0.445100113	0.408290164	0.462485177	0.475417473	0.490698881	0.504043984	0.537571518	0.516223347	0.501609551	0.519380584	0.56577427	0.554135571	0.584953437	0.57225966	0.590813621	0.60908184	0.64106792	0.587622956	0.631367066	0.619679355	0.59788782	0.652781157	0.596762864	0.693458846	0.64639582	0.68706435	0.657199217	0.691946554	0.67351429	0.678770025	0.652067926	0.668892173	0.698580863	0.68006266	0.704057469	0.681988761	0.716904421	0.678731424	0.73333917	0.701357256	0.653355812	0.693972603	0.682578225	0.737580973	0.733727441	0.692620651	0.703229756	0.672188299	0.708806706	0.662632792	0.679124571	0.714455778	0.651503078	0.6625913	0.653170614	0.658912485	0.660591502	0.611492772	0.630257829	0.648175222	0.619615543	0.646172423	0.583183703	0.607475729	0.556817821	0.582825009	0.5451761	0.573882818	0.566259055	0.570029866	0.503664166	0.53937789	0.524208664	0.493087412	0.480004556	0.504345258	0.488872963	0.437118443	0.422654578	0.427723196	0.400800284	0.438361467	0.388639726	0.402005459	0.391992884	0.356365205	0.357290405	0.332792027	0.333171075	0.357155965	0.26653484	0.302552131	0.309446939	0.280938857	0.25963475	0.217839165	0.215127195	0.206201046	0.171700752	0.187129681	0.149566294	0.143233056	0.134354567	0.113827425	0.087633137	0.053550193	0.078417394	0.055994965	0.024562023	0.023114616	-0.028028438	0.004574766	-0.019884046	-0.058938092	-0.10983081	-0.090040296	-0.089861878	-0.143733754	-0.116914271	-0.094408053	-0.13396461	-0.180096795	-0.174538309	-0.177046399	-0.221098651	-0.253009394	-0.248000849	-0.232781196	-0.240966644	-0.248944117	-0.311865865	-0.303387903	-0.319952185	-0.367038105	-0.358241537	-0.367798169	-0.354407018	-0.407311096	-0.392178532	-0.393250311	-0.395958833	-0.412646783	-0.431991985	-0.448966682	-0.450759488	-0.467788682	-0.493755316	-0.518623398	-0.495836777	-0.522519404	-0.525730293	-0.598542061	-0.582551016	-0.556266773	-0.593079413	-0.573983734	-0.602139997	-0.605635221	-0.56634404	-0.626154492	-0.632755967	-0.606238653	-0.612902465	-0.674369447	-0.650864732	-0.670194745	-0.684301384	-0.661113664	-0.656731684	-0.683676119	-0.674218443	-0.669923634	-0.670546722	-0.692398979	-0.679049116	-0.684497435	-0.718867929	-0.706300315	-0.683151919	-0.702593656	-0.720651856	-0.694153942	-0.742862947	-0.705246545	-0.686037826	-0.727649612	-0.691295922	-0.690405828	-0.689806679	-0.715154018	-0.715987453	-0.660444592	-0.675948538	-0.674621303	-0.720633554	-0.736579139	-0.67127577	-0.651667831	-0.698111803	-0.658748865	-0.651898786	-0.618549977	-0.65519212	-0.622003011	-0.601706241	-0.647832682	-0.579275072	-0.625764205	-0.582115932	-0.57318339	-0.621747543	-0.577214587	-0.592036006	-0.578000726	-0.520656258	-0.518366986	-0.525685947	-0.532046079	-0.513329924	-0.511663323	-0.462770175	-0.507938982	-0.448740131	-0.473494482	-0.443070857	-0.390062517	-0.431181347	-0.392911477	-0.426528852	-0.414658851	-0.331897098	-0.398972515	-0.349677832	-0.334159557	-0.337725154	-0.308622458	-0.295618931	-0.31229963	-0.254648218	-0.241225197	-0.254261294	-0.220886054	-0.203096787	-0.198380171	-0.209737474	-0.184229736	-0.216374662	-0.131932574	-0.140968297	-0.170395364	-0.150255326	-0.080467783	-0.092834739	-0.044124511	-0.075225231	0.002036629	-0.010451684	0.00269043	-0.026031948	0.001208409	0.034485452	0.062327545	0.045359053	0.097991361	0.081149384	0.109595733	0.118652178	0.172004978	0.148769839	0.173580353	0.152121897	0.183644724	0.18469036	0.224043395	0.259700265	0.235669818	0.267114593	0.301649238	0.286854466	0.30638763	0.313852709	0.290877161	0.343185483	0.341336866	0.36487135	0.35355938	0.38074499	0.378424524	0.383373135	0.415547982	0.418917741	0.424037799	0.426872906	0.443238951	0.434170538	0.474326151	0.500434469	0.483875088	0.520667075	0.510635764	0.53422415	0.528514685	0.522659596	0.566874892	0.564771208	0.585063029	0.590675635	0.576163484	0.605239389	0.591900107	0.629208281	0.645743883	0.612407219	0.621467272	0.653793721	0.638064015	0.645364926	0.66387201	0.692523374	0.67677761	0.648075253	0.704998816	0.694019727	0.68482814	0.672394342	0.676080778	0.67400972	0.70495467	0.676664317	0.728078093	0.694816435	0.713165253	0.70130237	0.674086295	0.703916445	0.718532522	0.654251302	0.701357687	0.683306594	0.719648722	0.728752056	0.696374469	0.713372493	0.695709761	0.702557115	0.68358536	0.693609381	0.660608054	0.680701046	0.693965115	0.669456849	0.655165209	0.638934085	0.636388676	0.672309245	0.629467808	0.651761479	0.638862085	0.630401898	0.610016254	0.610247716	0.58775901	0.621761815	0.597295245	0.563205146	0.545706219	0.588639896	0.591509887	0.525551518	0.511370811	0.54916304	0.522801863	0.491919937	0.509441009	0.492050398	0.464738774	0.497705407	0.470391686	0.453245597	0.462101869	0.445793615	0.453178484	0.410301684	0.390686246	0.426454234	0.401343479	0.336158535	0.344622297	0.329809927	0.355059075	0.334646516	0.330666142	0.321318547	0.292592133	0.30423167	0.288917532	0.232895152	0.239428018	0.214839026	0.183598222	0.178069316	0.202584955	0.146112796	0.10950649	0.144828322	0.140713611	0.10741731	0.057503892	0.106243688	0.069488504	0.110242351	0.02345614	0.019577148	0.02922206	0.002178837	-0.021779504	-0.037403561	-0.054662078	-0.046572778	-0.083789437	-0.061588665	-0.107548327	-0.119245875	-0.144165301	-0.152409654	-0.12732508	-0.166338204	-0.165433869	-0.154107093	-0.216811585	-0.220030937	-0.234909182	-0.253960289	-0.249480293	-0.28217576	-0.273605553	-0.283827694	-0.333757586	-0.341825156	-0.32224499	-0.360712106	-0.391679111	-0.395471464	-0.360921852	-0.37015666	-0.401323608	-0.437664095	-0.410175465	-0.444556375	-0.460012765	-0.427214847	-0.438079322	-0.463234516	-0.487717927	-0.510604598	-0.494283297	-0.506522102	-0.504005267	-0.534088119	-0.521367521	-0.572186114	-0.556046787	-0.590217905	-0.594035247	-0.600025265	-0.570643219	-0.599870691	-0.612767824	-0.605200592	-0.584259897	-0.560486824	-0.626092608	-0.638665985	-0.609487168	-0.657277923	-0.649963608	-0.659934233	-0.65907382	-0.668977095	-0.661959584	-0.640044819	-0.666759822	-0.687485978	-0.684302174	-0.68257031	-0.680922992	-0.6849018	-0.715997582	-0.668308412	-0.670925986	-0.714535476	-0.665657697	-0.696223429	-0.683374232	-0.704569773	-0.715681235	-0.711157227	-0.676479141	-0.736970542	-0.70969456	-0.683328991	-0.708439573	-0.7203841	-0.671607069	-0.689484563	-0.686662883	-0.639584521	-0.67156174	-0.670750218	-0.692048243	-0.706580078	-0.643101914	-0.688725168	-0.659591416	-0.653868954	-0.630181812	-0.665783099	-0.645401978	-0.6344506	-0.595240576	-0.601507921	-0.61234012	-0.619274429	-0.601288842	-0.603813243	-0.595751984	-0.594141638	-0.566594007	-0.586564894	-0.582110454	-0.576907861	-0.570066916	-0.568651616	-0.542308528	-0.517115153	-0.491919238	-0.498148388	-0.502631363	-0.489036863	-0.448628609	-0.485199985	-0.454729679	-0.473831483	-0.44157044	-0.440359018	-0.403329306	-0.406347458	-0.380472547	-0.377608201	-0.354895503	-0.368281834	-0.369583864	-0.371324451	-0.345785378	-0.290866146	-0.290663038	-0.31511159	-0.30481214	-0.265467964	-0.241772908	-0.204868167	-0.228790589	-0.229906635	-0.181420496	-0.163429695	-0.176251161	-0.144973797	-0.130835029	-0.173313348	-0.122326353	-0.118622363	-0.086519552	-0.076036381	-0.07306958	-0.075016634	-0.077458353	-0.051301386	-0.029698596	-0.044448184	0.015390059
