-1.2505219
-0.75467971
-1.1835803
-1.3338845
-1.5944504
-0.4982396
-1.0656583
-1.3624498
-1.4177903
-1.2666223
-0.56911653
-1.3031111
-1.2963524
-0.78335306
-1.3980988
-1.2912067
-1.5822713
-1.5201389
-1.1668635
-1.5979055
-1.2974544
-1.4281689
-1.4397477
-1.0948267
-1.1943884
-1.9283256
-1.6618946
-1.7047485
-0.22899584
-1.2498051
-0.17848876
-0.29910008
-1.0171378
-1.688696
-1.6001011
-1.3280904
-1.6993306
-1.80555
-0.98881683
-1.9756248
-1.5679289
-1.150802
-1.6222889
-1.0521301
-1.5285543
-1.4436612
-1.262289
-1.3062441
-1.5672598
-1.1244418
-0.73976967
-1.03015
-1.1146806
-1.6274844
-1.516406
-1.7577363
-0.80714147
-1.4969458
-0.30166002
-1.3911013
-1.6159005
-0.40023199
-0.77976093
-1.0684902
-0.96241848
-1.7887466
-0.44111304
-1.7226731
-1.4066393
-0.39235114
-1.3490954
-1.0338831
-1.8471066
-1.6298264
-1.3491109
-1.7162481
-1.6781029
-0.43772092
-1.2386967
-0.87978376
-1.4131277
-1.3294355
-1.4220069
-1.5658237
-1.2903868
-1.7734971
-1.2602937
-1.1170352
-1.5882232
-1.5347179
-1.0079474
-1.5188555
-1.3011376
-1.3566751
-1.6977755
-1.0414924
-1.3857999
-1.6641439
-1.4558792
-0.62993304
-1.163106
-0.56227446
-1.5558983
-0.50176486
-1.2452251
-1.2790021
-0.54306818
-1.1141226
-0.39789342
-1.5594968
-1.6651027
-0.69912488
-0.35045285
-1.6241524
-1.4156088
-1.0079178
-1.6362394
-1.7798794
-0.82592313
-0.72373475
-0.92865321
-1.913533
-1.4725608
-0.17926241
-1.647244
-1.3273985
-1.4255969
-0.378354
-1.687667
-1.4879249
-1.4754437
-1.434256
-1.6334929
-0.67587076
-1.0957921
-1.1528263
-1.5658715
-0.97837811
0.21415306
-1.8525663
-0.7335476
-0.36121575
-2.1140115
-1.2296493
-1.5600025
-0.28571206
-1.5613656
-1.569235
-1.475046
-1.543234
-1.6468502
-0.61186129
-0.96155553
-0.55624828
-0.9613256
-1.7719622
-1.2586409
-0.045725052
-1.3511347
-1.0059972
-1.6762881
-1.3892935
-0.3336094
-1.4352046
-1.4715159
-1.3512866
-0.87445169
-1.4912413
-1.3075586
-1.6752182
-0.86457108
-0.93846764
-1.5521922
-1.2438231
-1.6278079
-1.2497555
-1.5198557
-0.83794877
-1.2969124
-1.4036374
-1.2635768
1.1362121
-1.7196649
-0.93896643
-1.6306249
-1.2808868
-0.85525744
-1.4049534
-1.3615943
-1.334923
-1.5603988
-0.37241234
-1.3326449
-1.111645
-1.4023247
-1.1189923
-1.4122173
-1.179783
-1.3490957
-1.2739547
-1.066919
-1.5099644
-1.3220326
-1.5316417
-1.2592983
0.08990822
-0.7718073
-0.98741251
-1.716618
-1.0252712
-0.85001007
-1.1794241
-1.7152337
-0.65424474
-1.5024223
-1.5668584
-1.5029096
-1.1585366
-1.2915213
-1.4021531
-1.3326429
-1.5025363
-0.76294824
-0.26475674
-1.4858383
-1.2195621
-1.746335
-1.080047
-1.9978106
-0.58068975
-1.3780046
-1.2405261
-1.5861158
-0.76258356
-1.5351891
-1.8576219
-1.1003246
-1.7606428
-0.94615557
-1.5365883
-0.88095006
-1.2343471
-1.1838691
-1.6470862
-1.5387845
-1.3599797
-1.3156401
-1.6001921
-1.2842081
-1.1433834
-1.0838291
-0.1014351
-0.99989547
-1.1974944
-0.094419396
-1.5152992
-1.1340351
-1.3845739
-1.4599933
-1.23873
-1.173642
-1.1514411
-1.2874832
-0.49389532
-1.2129145
-1.8880898
-1.5831702
-1.2905851
-1.4360566
-1.7240939
-1.2395047
-1.5746683
-0.82598416
-1.4347156
-0.49536257
-1.8576671
-1.6046021
-1.6843221
-0.34224384
0.85281045
-2.0607479
-0.90989098
-1.1994891
-0.9843568
-1.8079613
-1.0793305
-1.2660088
-1.7856141
-1.7168013
-0.68472636
-1.7408417
-1.6740525
-2.0580713
-1.6778956
-1.993476
-2.0241906
-1.9352167
-0.94188994
-1.6889093
-2.1991274
-1.4501628
-0.77577649
-2.7370191
-0.92027125
-2.067687
-1.9824649
-1.0853652
-1.9292399
-2.4802482
-1.9285811
-2.4955663
-1.8944102
-2.1189241
-2.1357824
-2.4231334
-2.1200478
-2.1658834
-1.7428545
-0.22969014
-1.5421298
-0.92053202
-0.79575044
-2.0068948
-1.734087
-1.6275575
-1.3007155
-1.2152708
-1.5896219
-2.3063297
-1.797271
-1.2968524
-1.9994681
-1.4189197
-1.773994
-2.0848517
-2.2954866
-1.9310017
-1.7960639
-1.8566729
-2.0973015
-0.92220032
-1.2646022
-1.7277887
-2.3483901
-1.8054836
-2.1320225
-2.6605491
-1.8701777
-2.2582028
-2.4796598
-2.3834299
-2.0501557
-2.2572702
-1.2754387
-2.2424743
-1.6099526
-2.0504721
-1.5300369
-1.9717634
-2.1272426
-2.5517172
-2.2396918
-1.847231
-0.97913306
-1.3427077
-2.5959061
-2.0007592
-2.0678772
-2.3403507
-1.8015925
-1.20456
-1.0484619
-2.2013517
-0.85482615
-1.9590477
-1.8014705
-2.4575592
-2.716429
-1.813706
-2.7373024
-1.4296791
-1.9890068
-1.8628596
-1.3241036
-1.6819335
-1.6026553
-2.0791468
-0.90783871
-0.98743426
-2.2780756
-2.1428182
-1.8141162
-1.9259142
-1.0068865
-1.7363235
-2.2070312
-1.2335701
-2.051181
-1.7387237
-1.3646176
-2.571218
-1.4542863
-2.1842789
-1.9968474
-1.6011675
-1.3750943
-2.4494989
-2.0365733
-1.7558596
-1.4032336
-1.2649358
0.1844102
-1.8948265
-1.4381765
-0.91771054
-1.2673677
-2.185871
-1.8007219
-2.0883727
-1.8362536
-1.1952674
-1.4448343
-2.0297775
-2.3716658
-2.2536816
-2.193144
-1.3319178
-2.0480809
-1.3112711
-2.3421281
-1.7447028
-1.783915
-2.335038
-2.7253534
-1.5742009
-0.51961261
-0.89529328
-1.8974546
-1.7967859
-1.7567647
-2.4947665
-2.0209602
-2.2126218
-1.4235616
-1.7482104
-1.4609564
-1.3668961
-2.7182295
-1.2749073
-2.658612
-1.5235312
-1.4014739
-1.7073787
-2.0541729
-1.6075683
-2.1638364
-2.5992091
-1.1702284
-0.65070975
-2.1753643
-1.6236008
-2.9067133
-2.5025215
-2.4110638
-1.9508591
-2.0297864
-2.3206561
-2.4053668
-1.6764947
0.8786708
-0.29701974
-1.0173107
-0.79685355
-0.57348949
-0.36873496
-0.73760765
-0.46561022
-0.47939878
-0.30569293
-0.70903387
-1.6584506
-1.249213
-2.3919752
-1.2830499
-1.97103
-0.71553254
-2.0983891
-2.1272103
-1.4983934
-2.1029962
-1.8724426
-1.4763217
-2.1449381
-2.4954559
-0.82088316
-1.6882766
-1.0717507
-2.2562941
-1.0725741
-0.79602313
-0.63232248
-0.77986138
-1.9807535
-1.5885544
-1.0717055
-1.7984645
-1.0890454
-0.70693724
-1.0550271
-1.5893072
-1.284621
-1.6019502
-0.34863068
-0.25118679
-1.0940382
-1.0329209
-1.2034343
-0.97789263
-1.3729032
-1.9911273
-1.0692639
-0.49873748
-1.4492862
-0.9110268
-0.40618001
-0.52888998
-1.329247
-0.95849915
-1.3461283
-1.5929189
-1.6672748
-1.3708313
-1.3240839
-0.52990008
-1.0747108
-1.609939
-1.5430412
-1.2442656
-1.342937
-1.5992418
-0.36671675
-1.1641943
-1.5146032
-0.99131021
-1.3537503
-1.2997202
-0.4463651
-1.7766754
-1.1533366
-1.7003025
-1.5755116
-0.8161178
-1.193611
-1.4936068
-1.3673727
-1.444338
-1.2033074
-1.3303095
-0.94757142
-0.9987757
-1.3015455
-1.4493598
-1.1359889
-1.4018113
-1.5347119
-1.9845125
0.70594846
-1.2736369
-1.3545477
-0.69761329
-1.737634
-1.7594062
-0.054587755
-1.1664941
-0.17495433
-1.1913964
-0.49235585
-0.89535211
-0.61039767
-1.8526565
-1.077369
-1.4841603
-1.8044744
-0.75433745
-0.53520817
-1.5419681
-1.4831458
-1.528962
-1.5247294
-1.3597839
-1.3762965
-0.89317639
-1.1539925
-0.86291726
-1.5044703
-1.6352435
-1.0767202
-1.5667114
-0.1193916
-0.48781681
-0.75637187
-1.7027694
-1.5037545
-0.9661155
-1.7444407
-1.0267571
-1.4317705
-3.0354425
-1.0506275
-1.3661687
-1.7325442
0.4772548
-1.2575533
-1.2175779
-0.45683646
-1.5620363
-1.0160976
-1.0554935
-1.1040604
-1.6874906
-1.0767611
-1.871737
-0.265232
-1.3544975
-1.3404822
-1.2253079
-1.2671049
-0.71365654
-0.49847219
-0.86893248
-1.2462792
-0.91530585
-1.6159481
-0.67427288
0.28802898
-0.48704047
-1.5112014
-0.75352926
-1.964292
-0.93174325
-1.0495668
-1.308083
-0.75308411
-0.67071402
-1.5014443
-1.0201105
-1.6477797
-1.3015328
-1.1023316
-1.3865044
-1.6025423
-0.74546023
-0.51051683
-0.87067815
-0.48141552
-1.3746393
-1.2912172
-1.5765535
-0.85661903
-1.6582119
-0.75079132
-1.6112676
-1.4533092
-1.1863094
-1.1901935
-1.5057827
0.29445833
-1.2996315
-1.2366318
-0.76491487
-0.97542914
-1.2584273
-1.0756727
-1.8202631
-0.73091554
-1.3730213
-1.7220685
-1.6888508
-2.4333543
-1.6586789
-0.67302178
-0.97178734
-1.5349393
-0.995208
-1.5747128
-1.619829
-1.5958524
-1.7496878
-1.2253515
-1.5717438
-1.3580204
-1.3264876
-1.3408393
-1.3525443
-1.4078889
-0.62356892
-0.76641768
-1.4065617
-1.2840819
-1.4099351
-0.51341579
-1.4776147
-0.43848025
-0.28221671
-1.0721808
-0.92007487
-1.7354815
-1.9686966
-1.5476293
-1.5096871
0.062456686
-1.2808319
-1.4021174
-1.5852586
-1.8436195
-1.7630067
-1.5448821
-0.53547395
-1.5261244
-0.77560079
-1.2404309
-1.2330142
-1.5980801
-2.0624989
-1.3637774
-1.8333312
-1.0154651
-0.30907831
-0.4445618
-2.33225
-1.4102905
-0.46429676
-1.4510205
-1.5283967
-1.3346426
-0.95635138
-1.0164801
-1.9208892
-1.1192788
-1.2692541
-0.10334374
-1.7297585
-1.3690048
-1.305721
-1.7179312
-1.6037224
-1.2362267
-1.3237521
-1.1645686
-1.4687892
-0.91374895
-1.2981114
-0.84881189
-1.0453999
-1.3794726
0.46257525
-1.3933593
-1.4794673
-1.7393626
-1.2530951
-0.91301187
-1.468766
-1.4391146
-0.1503903
-1.4489978
-1.3777316
-1.3257711
-1.2162386
-1.0075204
-1.8174837
-1.6325207
-1.5007256
-1.0756482
-1.8092728
-1.5528313
-1.3131256
-0.8862165
-0.80524286
-1.3506232
-0.7378897
-1.112465
-1.2195045
-1.6669673
-0.22655407
-0.63913898
-1.3514995
-0.53255491
-1.0761377
-0.98975192
-1.2335105
-1.3201713
-1.575794
-1.0225188
-1.4304844
-1.4193449
-1.6139765
-1.2770733
-1.6013945
-1.8995072
-1.7713868
-0.45940406
-0.56477867
0.087203531
-0.70199738
-1.6017721
-1.1346959
-1.968797
-1.3965563
-1.4459932
-1.7275325
-1.0659049
-1.6311775
-1.4755216
-1.7050089
-1.3069741
-1.2492798
-1.1744654
-0.76908257
-1.5728242
-1.5414389
-0.6137516
-1.2877004
-1.7556552
-1.4805401
-1.7505929
-1.419378
-1.6864512
-1.4496426
-1.2032032
-1.4204123
-0.65661315
-1.8718272
-1.4449937
-0.68921834
-1.4468624
-1.3828986
-0.95402042
-1.5475563
-1.7375785
-1.3792978
-2.0020897
-0.81408511
-0.41608284
-1.6362721
-1.2442354
-0.53896825
-1.5507435
-1.5268058
-1.4439211
-1.3556424
-1.5695314
-1.1829308
-1.5822305
-1.0213444
-0.36803416
-1.2112443
-1.3001347
-0.12277518
-1.6127884
0.70176218
-0.89002373
-1.3345257
-0.8901635
-1.0977795
-0.53901428
-1.0952448
-1.600692
-1.5500948
-0.66157836
-1.9441504
-1.2394003
-1.28232
-1.4138798
-1.2310469
-1.7470965
-1.393773
-1.2715263
-0.98865419
-0.94843676
-1.11291
-1.4717531
-1.3888295
-1.4494678
-1.1746853
-0.46132313
-0.85588959
-1.1300063
-1.7972965
-1.5217065
-1.7279366
-0.97229991
-1.1301968
-1.3871592
-1.4495831
-0.63803177
-1.4019854
-1.4218363
-0.086109606
-0.4691411
-1.6880941
-1.3419003
-1.6128753
-1.5212799
-1.3067718
-1.538463
-0.89762431
-0.80517832
-1.0460768
-1.6259982
-1.9912795
-0.42296004
-1.6471502
-0.33105673
-1.81679
-0.32269991
-1.0141635
-1.0315371
-1.2502327
-0.78966217
-0.36894167
-1.4514144
-0.94057871
-1.5702154
-0.86675384
-0.503317
-1.1727267
-1.1175463
-1.3289326
-0.50595439
-1.5767335
-0.83339756
-1.677276
-1.3327316
-1.4129482
-0.66278139
-1.5730794
-1.0674495
-1.0894104
-1.516425
-1.7968644
-1.3809639
-0.4642249
-0.18728679
-0.44780054
-1.6499259
-1.1597547
-1.6254883
-1.8028154
-1.7262694
-1.7372088
-1.5140077
-0.9003781
-0.54480951
-0.52349265
-0.98496161
-1.4501518
-1.4948638
-1.6402456
-1.5608339
-1.6249166
-1.5585944
-1.0296048
-1.3309284
-1.6449534
-1.5132166
-1.2333528
-1.1623068
-1.2437567
-1.0375265
-0.76251512
-1.0440864
-0.27637853
-1.4867251
-0.20834675
-1.4081738
-1.7119177
-1.7921325
-0.95222881
-1.1424369
-1.5247156
-1.1790614
0.23887352
-0.1181476
-1.463775
0.74770512
-1.6036056
-1.3976368
-1.3869594
-1.295905
-1.4045356
-0.9978579
-0.43792889
-0.79176558
-1.7836192
-1.0515711
-1.3413468
-0.8665322
-1.6270758
-1.1527718
-1.4188433
-1.8796834
-1.0956096
-1.0727073
-1.5300914
-1.0122914
-1.225567
-0.5254511
-1.3141037
-1.5474467
-1.3307146
-1.3896926
-1.7039938
-0.30828132
-0.16502272
-0.85356984
-0.69122146
-1.4451117
-0.97895136
-1.9037984
-1.2618285
-0.60343647
-0.76667592
-0.63563607
-1.626462
-1.3840829
-1.6630587
-0.94316699
-1.2438668
-0.19678198
-1.3333545
-1.3539161
-1.5505296
-0.56998387
-1.4520001
-0.88217635
-1.465351
-1.8323116
-1.1615453
-1.4084971
-1.6601803
0.59719588
-0.94583115
-1.362405
-1.363393
-1.1137237
-1.1100672
-0.56228164
-1.0981236
-1.7913634
-1.0952244
-1.2757343
-0.73206257
-1.8251787
-0.89999694
1.0435625
-1.6881512
-0.4332376
-0.80547668
-1.2119111
-1.3493303
-1.6065091
-1.3993328
-1.3910103
-1.168816
-0.95275459
-1.5728635
-1.1919198
-1.6887025
-1.0440603
-1.5720465
-1.5024668
-1.7843117
-1.0004044
-0.20049973
-0.99221911
-1.5852473
-0.09782435
-1.5520576
-1.4550056
-1.4700055
-1.528845
-1.6627287
-1.7136031
-1.2725939
-1.4659438
-1.6453167
-1.54146
-1.1978563
-0.049722242
-1.0697742
-1.1281956
-1.7832512
-1.2123269
-1.3623099
-0.9791131
-1.1769283
-1.3325996
-0.82072388
-0.64889553
-0.56839958
-0.92603447
-0.86892753
-1.0770958
-0.69595315
-0.74398983
-1.3185242
-1.0911149
-0.92645734
-1.4925743
-1.5477201
-1.4462701
-0.65958748
-1.1659569
-1.3714272
-1.7191875
-1.2911475
-0.7920156
-1.216596
-1.2802169
0.60889243
-1.4217164
-1.5021447
-1.3677029
-1.1628254
-0.75743619
-1.6034944
-1.3703923
-1.059663
-1.1109294
-1.7839396
-1.7748024
-0.91329586
-0.81802624
-1.4413113
-0.57055832
-1.0056746
-1.7012546
-1.3725388
-1.7150141
-1.5143087
-1.4983053
-1.6283821
-1.2530251
-1.4034104
-0.6090619
-1.3876728
-1.1671983
-0.79374403
-1.1254034
0.68035364
-1.8598742
-1.4708128
-0.98121517
-1.6184859
-0.80652525
-1.2718341
-1.1947069
-1.6994396
-1.3574648
-1.8768511
-0.78642057
-1.4224612
-1.9341201
-0.65927868
-0.50287215
-0.81160125
-1.6003114
-1.6019402
-0.610846
-0.68092117
-1.5864306
-1.5707074
-0.4717646
0.56425197
-1.4786094
-1.5176319
-1.6168299
-0.08976156
-1.5507247
-0.86643717
-1.334258
-1.6872735
-1.5478368
-0.91299625
-1.2976702
-1.5578595
-1.3273227
-1.5204723
-1.7397355
-1.5048607
-1.500402
-1.0485569
-1.4091824
-1.9070801
-1.5724466
-1.3487345
-1.2376772
-0.85292819
-0.31294165
-1.3982987
-1.221406
-0.1963052
-1.3574616
-1.5128344
-1.7230602
-1.4389262
-1.8884884
-1.4719326
-1.2987688
-1.5820309
-1.3346816
-0.54390617
-1.1973985
-1.1772219
-1.3813182
-0.71743675
-0.96690625
-0.63898897
-1.9507314
-0.55281361
-1.2442939
0.70500451
-0.93626606
-1.3420094
-1.5736432
-1.5747208
-0.98073817
-1.2906655
-1.8065656
-1.4137561
-1.3769801
-1.7572352
-1.4705436
-1.1764808
-1.6161251
-1.1240658
-1.2399745
-0.57163362
-1.4701135
-1.2871348
-1.3690482
-0.84091384
0.35322396
-1.5702582
-1.1464193
-0.89613601
-2.0437865
0.08174431
-1.3628792
-1.2803943
-1.1115867
-1.2007268
-1.6442199
-1.0579891
-1.6552998
-1.3471507
-1.8442838
-1.4446603
-1.1657018
-1.3354025
-1.7066723
-1.2338903
-1.0983907
-1.5495107
-1.4524516
-0.81902863
-1.3649149
-1.5758524
-1.755332
-1.6485205
-1.5569503
-1.3192837
-1.1556794
-1.0132369
-1.4123483
-0.54243015
-1.7764707
-1.4878984
0.76762038
-1.3198756
-1.4972549
0.098434159
-1.5457252
-1.0435661
-0.93792505
-1.4445829
-1.5203808
-1.1219244
-1.4951718
-1.0081965
-1.495537
-1.8189253
-1.8501869
-1.0434471
-1.6133408
-0.57265304
-1.7992633
-1.0329546
-0.91108249
-0.75832546
-1.521
-1.9375357
-1.4770086
-0.84514561
-0.84647624
-1.3490969
-1.1380392
-1.1505857
-1.6309986
-1.7222841
-1.3921367
-1.5395636
-0.69526269
-1.1822632
-1.5000696
-1.8792845
-0.33088801
-1.5480414
-1.4062717
-1.8957901
-0.97326346
-1.4286634
-1.6089372
-0.68264762
-1.569396
-1.4904453
-1.1152972
-0.62972079
-1.2493148
-0.61171306
-0.99830686
-0.94842458
-1.2085703
-1.2807157
-1.2330561
-1.1560076
-0.6983144
-0.71178419
-0.3527207
-1.1282532
-0.75656993
-1.00691
-1.7408534
-1.6219407
-1.7056192
-1.0085613
-1.3496211
-1.6963221
-1.5977546
-0.98692431
-0.41709519
-1.6073718
-0.6900561
-1.4733716
-1.6209021
-1.073024
-1.3824502
-0.32531413
-0.82435307
-1.0842692
-1.5557353
-0.89808319
-0.53036068
-0.80662724
-0.43614323
-1.0302127
-1.4768222
-1.6216644
-1.5801179
-0.66590718
-0.99533376
-2.07595
-1.821206
-0.8933398
-0.85645267
-1.1758722
-1.3684021
-1.7935498
-1.4137165
-1.0395875
-0.40968243
-1.2307348
-1.3997205
-1.1320213
-1.1902762
-1.509079
-1.2837931
-0.19056323
-1.7946623
-1.463816
1.0295529
-0.54238063
-1.3360817
-0.8941349
-1.6044956
-1.2282773
-0.86846979
-1.3703664
-1.1840368
-1.368004
-1.1720436
-1.7048242
-0.77862427
-0.97756761
-1.5242587
-0.88726211
-1.0406419
-1.4935812
-1.1954895
-0.90142474
-1.9388219
-1.2814362
-1.1077965
-1.1023965
-0.76892036
-0.38057974
-1.6353021
-1.1615031
-1.2307896
-0.79244562
-1.4265362
-1.4582548
-0.82553632
-1.2412967
-1.6646158
-0.41665243
-1.8907175
-1.3682675
-1.625519
-1.3750398
-1.5834384
-1.5782923
-1.7985185
-0.78827474
-1.0130108
-0.98093268
-0.71557417
-1.4108113
-1.6680476
-1.6470616
-1.3898808
-1.4192185
-1.3576026
-1.2306636
-2.0209564
-1.2721257
-1.3744322
-1.5266206
-1.5937654
-0.27045514
-1.3232724
-1.3385827
-1.0556991
-0.40212066
-0.94131444
-1.074182
-1.612107
-0.5359071
-1.6773396
-1.1579264
-0.74137019
-1.1594744
-1.6734379
-1.9493927
-1.2569662
-1.6250512
-1.4554256
-1.6820555
-0.73663574
-0.85862774
-1.3973045
-1.2752735
-1.4778688
-1.8503715
-1.2964703
-1.2385773
-1.1758092
-1.3840447
-1.555088
-0.95434721
-0.50619486
-1.133151
-1.640492
-1.2642988
0.29597545
-1.281065
-1.0604329
-0.81718874
-1.3309333
-1.4016006
-0.7733548
-0.7638643
-0.83329016
-0.98525904
-1.5340153
-1.2761613
-1.3801162
0.59306965
-1.1553047
-1.1632037
-1.9062579
-1.5000334
-1.729092
-1.1377167
-0.49043018
-1.0616942
-1.5515537
-1.3798468
-1.2557874
-1.7594847
-0.61861501
-1.4959202
-1.7748123
-0.69179249
-0.83019727
-1.181564
-0.45028188
-1.6855391
-1.2759417
-0.33793249
-1.7134142
-1.5124408
-1.2580272
-1.2402769
-1.314003
-0.77596308
-1.6221687
-1.6268363
-0.82600762
-1.3378879
-1.5189769
-1.2436897
-1.3961539
-0.70044541
-1.5661964
-0.39847318
-0.93044829
-1.1872932
-1.3402735
-1.1388781
-1.101087
-1.2967758
-1.5562841
-0.19871732
-1.8781291
-0.67235281
-1.445342
-1.3839227
-0.73178163
-1.2250969
-1.0898876
-1.4061086
-1.8371169
-1.6034306
-1.1835144
-1.6284321
-0.63292895
-1.0596553
-1.4026302
-0.40668161
-1.6863793
-1.6591734
-1.6426642
-1.4686818
-1.4588664
-0.16113147
-0.60657253
-1.2510757
-0.68255033
-0.82746962
-1.6029132
-1.1854186
-1.2120877
-0.14275289
-0.82792935
-1.2389431
-0.2413892
-1.5196778
-1.8472158
-1.4775144
-1.5085824
-1.0830432
-0.44446988
-1.2340815
-1.8399149
-1.4623498
-0.73858076
-1.5295438
-1.236044
-0.98251727
-0.89060116
-1.2422839
-1.7107099
-1.7285525
0.098572897
-1.3311198
-1.5611351
-1.3805878
-1.3708064
-1.5551018
-1.3106552
-1.5819624
-2.0338892
-1.7209795
-1.6513143
-0.90917445
-1.0149603
-1.0260702
0.41555276
-1.1425514
-1.7149097
-1.0860196
-1.5511664
-0.86414348
-1.7215307
-2.1966587
-1.4967518
-0.41159465
-2.332917
-1.0290334
-1.3442058
-1.3691239
-1.3527804
-1.8492334
-1.656891
-1.915353
-1.4862165
-1.3669273
-3.0494596
-1.2762871
-1.6802436
-1.7294278
-1.5133218
-1.1847456
-1.009879
-1.4112415
-1.0261783
-1.4623705
-1.4124746
-0.99039855
-0.66054776
-0.68171
-0.66062754
-1.674731
-1.521869
-0.97956665
-1.3718799
-1.9419166
-1.6650698
-1.5049161
-1.8144913
-1.019312
-1.4525094
-1.354249
0.009200207
-1.1640054
-1.6421543
-1.1490349
-0.79367162
-1.3797084
-1.3163169
-0.25763119
-0.64261797
-1.4964082
-1.0446024
-0.89074273
-0.96203286
-0.73593916
-1.4729544
-0.58221716
-0.70214521
-1.4476438
-1.3699994
-1.2448944
-0.51717045
-1.2094204
-0.5084351
-1.2444465
-1.1837335
-1.3678157
-1.8617245
-0.68910652
-1.4029989
-1.4051939
-1.7236473
0.51687051
-1.6262583
-0.65576992
-1.3977408
-0.73812186
-0.9310392
-1.3686471
-1.1831859
-0.76356873
-0.38422203
-1.4781794
-1.1157411
-1.3054794
-0.42996722
-1.4660535
-1.8746824
-0.90534114
-0.35218732
-1.368831
-1.4061136
-1.6179401
-1.0314992
-0.53581223
-0.60148185
-1.1332566
-1.1861064
-1.0982739
-1.2810847
-1.3632248
-1.3530273
-1.0974874
-1.553645
-1.6012499
-1.2361757
-0.019705718
-1.2843035
-0.27686383
-0.89200597
-1.6520361
-1.3615001
-0.9289256
-1.0587171
-1.5397282
-1.5349609
-1.4923253
-0.66559884
-0.45577891
-0.95400842
-1.9498447
-1.1719024
-0.50819097
-0.79284749
-1.2775091
-1.5674517
-1.5639945
-1.4075117
-0.75844281
-0.84184181
-1.3769813
-1.5460706
-1.9812246
-1.3285367
-1.4421111
-0.54366681
0.001003067
-0.79324555
-1.617977
-1.2737091
-1.7930399
-0.82878129
-0.46898133
-0.66778408
-0.7340541
-1.6041207
-1.5481048
-1.5383532
-1.3932868
-0.68721597
-1.1209764
-1.132838
-1.271647
-1.7732596
-1.619956
-1.4067776
-1.1186975
-1.496054
-1.086385
-1.0907161
-0.70163543
-1.2539216
0.19469971
-1.7060199
-1.0937784
-1.1077217
-0.49747648
-1.5783792
-0.28607175
-1.692123
-1.0979058
-0.9130896
-1.1955059
-1.6255273
-1.0277259
-1.3665375
-1.4340422
-1.1189007
-1.0092924
-1.3531006
-0.7148304
-1.5320564
-1.4418849
-1.5755368
-0.74068468
-1.4051501
-1.530351
-1.5253122
-0.93796569
-1.4062628
-1.1080091
-0.89133053
-1.5742498
-1.7932215
1.3854759
-1.2260255
-1.2906502
-1.4344496
-2.1461994
-1.360389
-1.4318275
-1.131161
-1.1162556
-0.35910038
-0.91221769
-1.8638038
-0.49081038
-0.68606369
-1.4487575
-0.91203844
-1.7953077
-1.8866915
-1.7323029
-0.86912234
-1.6234998
-1.3454584
-1.3344441
-1.092731
-0.4321437
-1.3616211
-1.2831721
-1.4032113
-0.72597546
-1.8419425
-0.81451689
-1.3517315
-0.8250024
-0.046365635
-1.9172784
-1.400795
-1.9177035
-1.2420421
-1.4098521
-1.7081733
-1.2394996
-1.922982
-1.0948036
-0.46835316
-1.1433487
-0.6444191
-0.75033869
-0.41823168
-1.7296242
-0.70134266
-0.37871047
-1.3028441
-1.5775349
-1.5222355
-0.68317584
-0.72824597
-1.6753504
-0.40679265
-1.6541577
-0.60998362
-1.7980101
-1.608347
-1.0638332
0.36053861
-1.6651856
-1.2073799
-0.5766252
-1.5915076
-1.6738024
-1.2252989
-1.7115787
-1.4423471
-1.1016662
-0.36192629
-0.60262995
-1.6278324
-1.5530148
-0.96855991
-1.3624927
-0.58616621
-1.9012865
-0.73732434
-1.4153466
-0.85790974
-1.8740128
1.2360427
-1.6624206
-0.55742195
-1.5955566
-0.96672935
-1.429281
-1.223691
-1.4399879
-0.73524833
-1.4955539
-0.44804688
-0.72225537
-0.97448447
-1.0418174
-1.0932917
-1.5755785
-0.78041934
-1.0476852
-1.3515529
-0.9097601
-0.11666656
-1.5692853
-0.95676392
-1.8036864
-1.3572706
-1.0934064
-1.1116198
-0.77105448
-1.6023848
-0.39196427
-1.3750324
-0.60230949
-1.4432229
-1.7284898
-1.3819631
-1.5812211
-1.1581132
-1.1643811
-1.1259768
-0.78299952
-1.6100556
-1.3318519
-1.1422941
-1.6599093
-1.3789181
-1.1827073
-0.44624335
-1.806421
-1.2107612
-1.7348775
-1.3290655
-1.7198232
-1.7546313
-1.214615
-1.5794105
-1.4690591
-1.8578596
-1.2673392
-1.617322
-1.4374506
-1.8657662
-1.215882
-1.3579279
-1.7508395
-1.7854844
-1.2163102
-1.2105733
-1.1624159
-1.1959265
-1.509948
-0.28764585
-1.0875389
-0.38938298
-1.2804095
-1.1584864
-1.8387008
-1.1271132
-0.75016909
-1.4536376
-1.3044057
-1.8616713
-1.8061202
-0.9255357
-0.83104172
-1.081908
-1.695084
-1.7843344
-1.1335684
-1.7540656
-1.7716142
-0.44791813
-1.3432534
-1.3759886
-1.5468134
-0.75775864
-1.2429857
-1.4311076
-0.28248043
-1.6942454
-0.63373474
-0.53693322
-1.0675455
-1.5108985
-1.2199684
-0.96998166
-1.4433644
-0.85774811
-1.0284269
-1.4045506
-1.5752217
-0.49479396
-1.4079304
-0.39596529
-1.1079397
-1.889463
-0.89198023
-0.8842511
-1.5568263
-1.7873685
-1.2555223
-1.4654307
-1.1220475
0.37464642
-1.2952265
-1.7798968
-0.16633258
-1.5549356
-0.28972987
-1.1041614
-1.5315347
-0.62039985
-1.030268
-1.256492
-1.4388969
-1.743578
-1.5023735
-1.5304759
-1.2010223
-1.5636928
-1.5692263
-1.8271417
-1.0253428
-1.4232565
-1.7863742
-1.8707768
-1.2588879
-1.0909247
0.25706222
-1.4769319
-1.3269506
-1.4098189
-0.91761598
-1.5277059
-0.47306574
-1.3834406
-1.6452684
-1.6362741
-1.2118017
-1.5706892
-1.5499909
-1.2997334
-1.0341885
-1.1345514
-0.97706124
-0.29101154
-1.3086635
-1.6289257
-0.84351569
-0.40982436
-0.85593566
-1.2382661
-0.69156939
-1.9928841
-1.378879
-1.3982914
-0.49642623
-1.0850491
-0.69670614
-1.3686761
-1.4720814
-1.6931674
-0.52969736
-1.6572823
-1.634552
-1.6311811
-1.7498514
-1.9859756
-0.24118191
-1.0198707
-0.45337958
-1.4771087
-1.3926134
-1.870511
-1.331324
-1.6379655
-1.5599994
-1.3432136
0.20063797
-1.2155174
-1.3631253
-1.5746736
-1.3122655
-1.2093658
-1.0021893
-1.7830559
-1.5563484
-1.0193529
-1.6206748
-1.5788637
-1.4672329
-1.433593
-1.4115929
-1.3983227
-0.98604904
-1.7696347
-1.4366998
-0.33469452
-1.3973132
-1.0176587
-0.95393211
-1.529027
-1.3134345
-1.5479201
-1.0418523
-0.73518447
-1.1141877
-1.3411009
-1.1319162
-1.089822
-1.5970642
-0.97798811
-1.4144962
-1.3435341
-0.83698656
-0.98390182
-1.5087451
-0.92484709
-1.6770924
-0.66901899
-1.0538072
-1.4479795
-1.5747995
-1.5545238
-1.121548
1.2567653
-0.78660072
-1.4618368
-1.2936918
-1.463108
-1.5200082
-1.6553872
-1.718198
-1.7856003
-0.58715638
-0.69789748
-1.4147153
-1.2088802
-1.2282484
-1.4422837
-1.1422436
-1.4389627
-1.2999872
-1.4879623
-1.1839726
-1.5559937
-0.55228383
-1.0016882
-0.62082729
0.80155148
-1.3514267
-1.1680966
-1.7683965
-1.2846248
-1.2144072
-1.5323774
-1.1631758
-1.5930619
-1.5386327
-0.80929552
0.1721316
-1.2814551
-1.4788974
-0.81724407
-1.0527075
-0.95887271
-0.82733217
-0.34781633
-1.0794073
-1.4889834
-0.72197258
-1.5411235
-0.96544231
-1.512289
-0.79620024
-0.33318632
-1.6185338
-1.0588666
-1.31368
-1.6166727
-1.4018051
-1.5572455
-2.4540216
-1.6054579
-0.42983033
-0.74160412
-1.7583601
-1.2078402
-0.80861509
-1.3015902
-1.6263306
-0.72707365
-1.1673773
-1.3512887
-1.701589
-1.3425873
-0.63312361
-1.0151377
-1.5769493
-1.5195484
-1.234557
-1.6924481
-1.2572558
-1.4082702
-1.2563047
-1.5359161
-1.3695333
-1.6703405
-1.1121248
-1.0597269
-0.55418806
-1.1509351
-0.88927944
-1.5349324
-1.3795223
-1.0439072
-1.102416
-0.88485505
0.11822464
-0.94310185
-0.99033985
-0.30586126
-1.0171646
-1.0989286
-1.4624657
-1.2532728
-0.79101498
-0.85409171
-1.3611254
-1.2597284
-1.3997907
-0.88047125
-1.2873698
-1.0390717
-1.5094455
-1.4233735
-1.2829462
-3.1633935
-1.2117969
-0.13989277
-1.4014602
-1.5343401
-1.6854575
-1.2551005
-1.2965484
-1.5123644
-1.7079974
-0.96509048
-1.2454122
-1.5077505
-1.426556
-0.24859156
-1.3652306
-1.526858
-1.2349054
-1.6100855
-0.96870336
-0.91356107
-0.89076557
-1.2097821
-1.1501055
-1.1973282
-1.7688444
-0.97365354
-1.1886092
-1.7869588
-0.8848165
-1.7259108
-0.84661453
-1.7007537
-1.433098
-0.81661765
-1.2360387
-1.6325014
-0.49570099
-0.075570262
-1.5925311
-1.0673611
-1.8763621
-0.53630857
-1.0402168
-1.7193029
-0.84315843
-0.73061578
-1.6658544
-1.5163824
-1.1499119
-0.22000843
-1.3323646
-0.57874709
-1.2163898
-1.5457579
-0.451626
-0.16370289
-0.74028564
-0.63995655
-1.4310714
-1.8909902
-0.67196497
-1.4371729
-1.5806053
-0.58954757
-0.88607449
-1.508272
-1.2955149
-1.4222052
-1.5482338
-1.1469576
-1.9501304
-0.50635147
-1.4147084
-1.0964331
-0.76756513
-1.3480851
-1.6773875
-1.3233334
-1.2181255
-0.96945133
-0.98904021
-1.3819848
-0.70196038
0.075270363
-1.4427555
-0.82577156
-1.3024118
-1.463515
-1.633507
-0.47477875
-0.72105746
-0.50240355
-1.4887781
-0.49821055
-1.3605256
-1.5460477
-1.1761235
-1.5264215
-0.37851791
-1.1872576
-1.375799
-0.97396929
-0.69051278
-1.073261
-1.047246
-1.2956815
-1.6432875
-1.0386736
-1.2576233
-1.4712433
-1.3181742
0.07208645
-1.4452077
-1.267459
-1.1483994
-1.2488072
-1.2394733
-0.91470044
-1.2934499
-1.040368
-1.9099191
-0.76487201
-1.201483
-0.37617865
-1.5879536
-0.78812767
-1.6995906
-1.6435997
-0.6653465
-1.4600074
-1.2496735
-0.16598853
-1.3910082
-1.7509209
-1.5421705
-1.5133809
-1.8030325
-1.2273452
-1.5934728
-1.2151572
-1.3959237
-1.3808591
-0.94791288
-1.3120572
-1.4252519
-1.1992868
-1.353493
-0.32441939
-1.2176627
-1.1515794
-0.64636248
-1.8012811
-1.5397808
-1.3782338
-1.2598383
-1.1370839
-1.3355663
-1.1470291
-1.7512425
-1.0612516
-0.98752064
-0.61650409
-1.8043374
-0.97888001
-1.6857662
-1.1015382
-1.5411726
-0.96034622
-1.2651596
-1.3100221
-1.1786879
-0.30140857
-0.41760775
-0.11050842
-1.6757993
-1.0631554
-1.4265973
-1.2268648
-1.2440262
-1.7061478
-1.3512557
-1.2059019
-1.3678428
-1.5966384
-1.4031064
-1.4546404
-0.36472851
-1.2736415
-0.44832426
-0.35571432
0.24670129
-0.79439754
-1.6653285
-1.0635333
-1.4717004
-1.6242178
-1.2510311
-0.85366486
-0.91360864
-0.48703522
-0.48789734
-0.58137548
-1.4865879
-0.31633126
-1.326225
-1.2353294
-1.5997609
-0.83140182
-0.7453014
-0.19218457
-1.7093964
-1.5802449
-1.6397344
-0.76727086
-0.028991265
-0.96279459
-0.80645633
-0.78070954
-1.5527585
-1.5577959
-1.9806923
-1.5371871
-0.25254071
-0.7918291
-1.5911338
-0.92264901
-1.5948141
-1.73226
-1.1535137
-1.8774276
-0.60693236
-1.7706036
-1.4874198
0.87530147
-1.2296792
-1.6266644
0.21575238
-1.695391
-1.3360742
-1.4348865
-1.5703529
-1.6762675
-0.99137158
-1.6198828
-0.42005394
-0.9102693
-1.2861138
-1.442249
-1.7863793
-0.58424334
-1.044988
-1.5691248
-0.99066339
-0.84005253
-1.3192853
-1.2243658
-1.6380745
-0.60436611
-0.89970022
-0.50296655
-1.0547135
-1.7752998
-1.2390847
-1.1406197
-1.5608655
-1.4323176
-1.8231298
-1.7834895
-0.79842562
-0.93007156
-1.7377344
-1.2787356
-0.35415408
-1.2277738
-1.3591018
-1.318152
-0.51731624
-0.925653
-0.60610897
-1.1757817
-1.7233646
0.16063995
-1.7073734
-0.46405261
-1.4506722
-1.6593259
-0.84357733
-1.5516176
1.0662234
-1.7037207
-1.2868257
-0.82499208
-1.1784522
-1.8156695
-1.4308586
-1.5485319
-1.6544592
-0.95556931
-0.24874649
-0.29638594
-0.4647064
-1.4705628
-1.0680226
-1.1096877
-1.1533042
-1.5563005
-1.4562492
-1.2300629
-0.85829332
-1.2313317
-1.2630938
-0.95338547
-1.8493836
-1.006549
-0.9408296
-1.2941862
-0.29423501
-1.4805111
-1.2084582
-1.0665613
-1.2580924
-1.0189731
-1.4428507
-0.86604297
-1.0498296
-1.5784668
-0.49991224
-1.6684725
-1.4641366
-1.7761988
-1.6268466
-1.4865847
-1.2616236
-1.6379261
-1.2265276
-0.63085501
-0.5553534
-1.0388154
-0.55027304
-1.2715695
-0.60930608
-1.0134333
-1.8768937
0.99551229
-1.2553871
-1.3430076
-1.5153195
-1.3383864
-1.1369313
-1.5787238
-0.71001897
-1.6778344
-0.89784249
1.3428218
-1.5222669
-1.2836227
-1.4518207
-1.1150661
-1.1318074
-0.3906644
-1.2523346
-1.549699
-1.1778579
-1.0600051
-0.90643098
-1.5410226
-1.33521
-1.0249816
-0.87679952
-0.68290078
-1.558031
-1.4226782
-1.6781089
-0.69124668
-0.54842818
-1.6009136
-0.74352285
-0.76775925
-0.96003391
-1.1528891
-0.89476475
-1.4789863
-1.2490386
-0.36459956
-1.6543872
-1.2447995
-1.4530547
-1.4171673
-1.2906974
-0.995596
-1.4394291
-0.23938608
-1.4945784
-1.0918801
-0.46351109
-0.9462959
-1.1976367
-1.2088972
-1.336982
-1.1782481
-1.379051
-0.93246478
-1.3583921
-1.4169385
-1.3073967
-1.3886751
-1.1455155
-1.3819956
-1.30534
-0.51832552
-1.3240046
-1.479408
-0.90363714
-1.7991268
-1.5820728
-1.0591163
-0.81200069
-1.4283685
-0.82182528
-1.5906732
-1.6458135
-1.1381249
-0.44232443
-1.504018
-1.1739372
-0.9221887
-1.840903
-0.73002695
-0.47610845
-1.6505535
-1.2904853
-1.2355687
-1.135303
-1.2607102
-1.595106
-1.6076057
-1.4907354
-1.6166323
-1.4012535
-0.76947613
-1.0195058
-1.5459378
-1.363844
-0.9299926
-1.7397639
-0.81058232
-1.4771168
-1.6756715
-1.2368596
-1.5821926
-1.3533978
-1.4117122
-1.1881644
-0.96535517
-1.5980476
-1.4093086
-0.98374761
-0.98317293
-1.4555811
-0.84162477
-1.1335216
-1.3699376
-0.69629026
-1.8475384
-1.5012312
-1.8629808
-0.48395796
-1.4816818
-1.6505387
-1.6464359
-0.83438194
-1.7079246
-1.1936527
-0.76793406
-1.315903
-0.52001448
-1.4911732
-1.1471037
-1.0578215
-1.5432249
-1.6792556
-1.7184528
-0.41219366
-0.60387718
-1.1757772
-1.388413
-1.0013411
-1.6216524
-0.90805341
-1.5246972
-1.1935033
-1.5702354
-1.2542697
-1.2024522
-1.1002786
-0.77286911
-1.005605
-1.4677298
-1.4899438
-1.0586026
-1.0010282
-0.91876116
-1.5159992
-1.3552835
-1.217873
-1.0936697
1.68373
-1.7465145
-1.5210317
-1.8437096
-1.5608605
-0.64961786
-1.0256319
-1.2623246
-1.0267623
-1.6360349
-1.2789988
-1.3560139
-1.4259159
-1.1234016
-0.018912341
-0.54182163
-1.3975339
-1.8431041
-0.4175614
-1.0454257
-0.95997856
-1.3170029
-0.58687335
-1.8400777
-1.7635579
-1.3799669
-0.61788145
-1.0502424
-0.77402001
-1.5110476
-1.16121
-1.5243259
-0.44191954
-2.2945958
-1.4978695
0.34500999
-0.86205512
-1.4233141
-1.5156917
-1.2033726
-1.3859292
-1.6097393
0.49105385
-1.6230382
-0.51098814
-1.1057182
-1.3878383
-1.0093249
-0.56067469
-1.7649088
-1.9774612
-1.7374826
-1.2852036
-1.713776
-1.3981506
-1.4891038
-1.2877923
-1.4380928
-0.39871062
-0.33733345
-0.25615607
-1.5071304
-1.0004108
-1.5907339
-0.007285135
-1.3765581
-1.6707589
-1.508787
-1.3101929
-0.57025137
-0.94945588
-1.8813178
-1.3997315
-0.8036014
0.079594862
-1.2316507
-1.4522637
-1.1402238
-1.1022946
-1.6505362
-1.0518157
-1.547295
-1.3500462
-1.17249
-1.5305878
-1.5151096
-1.3224399
-1.6081608
-1.3021679
-0.52222785
0.18890302
-1.7804453
-1.48594
0.60150375
-1.5771156
-1.2204831
-1.6841356
-1.4854922
-0.40690957
-0.62750135
-1.1513798
-1.3162744
-1.3407088
-0.16568815
-0.82998166
-0.43723404
-1.9115537
-1.269229
-1.7072198
-1.6978492
-0.81225267
-1.1897994
-1.5153985
-1.7179059
-1.3032495
-1.3796498
-0.97697028
-1.0884991
-1.0726054
-0.46205262
-1.6609501
-1.0918959
-0.78183301
-1.7095886
-1.1702593
-1.7529393
-0.47111673
-1.2112359
-0.34764764
-1.5163203
-1.8024058
-0.21785898
-1.8045107
-1.4595803
-0.70668909
-1.2880243
-0.97563448
-0.23880105
-0.35785771
-0.53571241
-0.99429374
-0.25817757
-0.91276345
-0.38491508
-1.7010569
-0.62269623
-0.62252903
-1.8486322
-1.8378442
-0.92703188
-1.7390933
-1.1687583
-1.6158489
-1.2678052
-1.8202074
-1.0846945
-1.6280368
0.049870102
-1.6107769
-1.5240289
-1.6190683
-1.4336943
-1.3884531
-1.3322239
-0.51462522
-0.53830547
-1.3123903
-1.1731808
-1.7731574
-1.7329015
-1.5360572
-0.82351122
-1.7029998
-0.47383445
-0.92919216
-1.0380625
-1.4132873
-1.7580129
-0.99455374
-1.4810912
0.78030676
-0.79616132
-1.7285263
-1.1768651
-1.2277896
-1.2700146
-0.43973568
-0.83878917
-1.4918469
-1.2438942
-1.4222034
-1.4270977
-1.6429778
-1.3110937
-1.9708004
-0.54614641
-1.1970813
-0.70941805
-0.9327097
-0.3274201
-1.0168784
-0.72700217
-1.8785108
-1.482077
-1.4589759
-0.28136001
-1.1469307
-0.9661707
-1.6913474
-1.1896343
-0.98820098
-1.759199
-1.6392001
-0.80657506
-1.0426797
-1.7306761
-1.318478
-1.7333172
-1.2244441
-0.8996283
-1.7163613
-1.718336
-1.5694588
-1.3861137
-1.5163051
-1.7613546
-1.2785502
-1.2333128
-0.2502457
-1.7898678
-0.6485574
-1.4348976
-1.2930602
-1.1100674
-0.36314993
-1.5233215
-0.49109981
-1.4242095
-1.0872546
-1.7516116
-1.7690825
-1.079631
-1.7160987
-1.6065645
-0.82280586
-1.2264019
-0.89561037
-1.4981965
-1.5352339
-2.1829463
-1.5759634
-1.5133197
-0.81603441
-0.011065662
-1.2270434
-1.6832604
-1.3808993
-1.5764342
-1.6775467
-0.95807062
-1.296918
-1.7056712
-1.264936
-1.5972946
-0.60806789
-0.40814541
-1.4797011
-1.6043387
-1.4590656
-1.3779222
-0.49687927
-1.1312653
-1.3836761
-1.2835143
-1.6031036
-0.99608367
-1.4985627
-1.6552944
-1.383066
-1.5233801
-1.3122635
-0.95255132
-1.7880475
-1.835526
-1.9360359
-1.5524192
-1.5812645
-1.2175083
-1.316317
-1.6349037
-1.3143307
-1.3026507
-0.82877836
-0.81320437
-1.7357151
-1.065105
-1.1633022
-1.7261098
-1.1816944
-1.3747893
-0.4539117
-0.72197486
-0.69871153
-1.7271803
-1.4375415
-1.391324
-1.3573066
-1.2450559
-1.261902
-1.3739448
-1.107335
-0.74558731
-0.53944438
-1.0000459
-1.2877715
-1.0450178
-2.0822436
-1.4289294
-1.0180728
-1.8701943
-0.7363371
-1.2648243
-0.43611099
-0.76929774
-1.3475435
-1.1058878
-1.2689013
-1.0721729
-1.7757347
-1.4406988
-0.86489918
-1.41142
-1.3373653
-0.57121225
-1.8055142
-1.4307934
-1.7194374
-0.95639246
-1.0999515
-1.5126318
-1.1766914
-1.4780985
-1.3154624
-0.67261203
-1.9914715
-1.2791755
-0.78644271
-1.1963079
-1.3460919
-1.3206028
-1.9917314
-1.31365
-1.7132143
-0.65526927
-0.41587197
-0.20009519
-0.96219767
-1.3359528
-1.5575056
-1.1760299
-1.6972562
-1.5691124
-1.335095
-0.46635786
-1.4438723
-1.0560973
-1.3079413
-0.80913107
-1.4543898
1.0330268
-1.0268972
-0.6107827
-1.8943914
-1.5542873
-1.4944365
-1.9694465
-2.1162285
-1.6318171
-2.4310152
-2.1283142
-1.9430747
-1.5561901
-1.2904595
-1.0326911
-1.9385616
-1.8833154
-1.4009564
-1.9101399
-2.0866973
-2.0005156
-1.6500143
-1.6783952
-1.1898614
-2.2934139
-1.824454
-1.5589982
-1.9057949
-0.70582056
-2.1279464
-2.3053669
-1.7967192
-1.9846447
-1.7677453
0.088322599
-2.0569749
-2.1705292
-1.3805428
0.22449382
-3.6980041
-2.1804866
-1.1563117
-1.6699881
-2.223108
-2.3160447
-1.9663003
-2.1568409
-1.4288455
-1.9303758
-2.4149194
-2.2056746
-2.235147
-1.6398602
-2.2634094
-2.4125454
-2.4580649
-1.8984058
-1.6196539
-1.5499593
-1.7893769
-3.0470344
-0.9091919
0.083365776
-1.5365586
-1.6467969
-2.4225743
-1.2974981
-2.4316289
-1.9971719
-1.9515856
-0.78484084
-1.4778783
-1.279506
-1.9874068
-1.4468155
-0.60311931
-1.8057664
-2.0155728
-1.4682376
-1.4563062
-2.8206415
-1.4530121
-2.6107763
-2.4464848
-0.64076885
1.0951455
-0.95389616
-3.4099176
-0.7349051
-2.3843383
-1.0112866
0.15934087
-0.25167066
-1.4990906
-1.2060809
-2.1213671
-2.5942554
-2.3405748
-1.0233914
-1.699314
-1.395474
-1.2864665
-1.0051022
-2.3106938
0.25245477
-1.7663723
-1.617906
-1.3913465
-4.071361
-1.7819681
-2.4192188
-2.6469024
-0.64239018
-2.348142
-1.1292893
-1.0609764
-0.9632889
-2.4518235
-1.1017767
-1.9594992
-2.950938
-2.3070965
-1.6902224
-1.9248292
-0.9384994
-1.9149855
-3.3988453
0.2769904
-3.2145769
-1.6707349
-2.9935916
-1.9162909
-2.2184869
-1.3750919
-1.9811932
-2.3826111
-2.4834024
-2.6309238
-2.028948
-2.6086896
-2.8741529
-2.0441092
-1.7304952
-1.9330645
-2.8268489
-2.4113211
-1.9287591
-1.993726
-1.4075068
-1.4698572
-2.2712033
-2.4442994
-1.9285048
-1.2940921
-1.4012045
-0.26472449
-2.389699
-0.95948512
-1.3327906
-1.7687147
-0.30219596
-1.8592171
-1.5690896
-2.0857021
-1.8959043
-1.2568546
-1.7341036
-1.2637899
-1.7733556
-1.5431901
-0.063706824
-1.864584
-1.384554
-1.585416
-0.35928963
-1.9864633
-2.0426911
-1.3407639
-1.0830418
-2.138189
-1.1115418
-1.8548338
-0.84375978
-1.8839184
-1.7832887
-1.6083008
-0.86948636
-1.7098463
-1.4539157
-3.5140202
-0.88227104
0.25241195
-1.9912197
-1.9374583
-2.0422745
-1.6461119
-1.521156
-2.2258511
-2.0715721
-1.209481
-1.1592227
-2.4462086
-2.1812044
-2.6402235
-1.016714
-1.6285929
-1.0993592
0.91743703
-1.3668483
-2.2223772
-1.8113879
-1.5974477
-2.0679847
-1.156697
-1.2369084
-2.0460535
-1.6692464
-0.96479777
-2.2581773
-2.0053831
-1.5573196
-0.97430718
-0.83078899
-2.5817494
-1.934562
-2.3285166
-2.5440959
-1.921887
-1.673746
-2.4241786
-2.4251903
-1.4014922
-3.2919679
-1.0489266
-1.8523915
-2.452028
-1.5263094
-1.6025659
-2.0024455
-2.3777128
-1.3005543
-1.9371691
-2.4173461
-2.2556721
-1.5509593
-1.6765961
-1.8145992
-2.4034029
-2.8976734
-2.4668879
-1.7668894
-3.323135
-1.9013497
-1.4321576
-3.2371633
-1.3170793
-1.7815139
-1.1250696
-1.2805982
-0.54091914
-1.465961
-1.8522348
-1.2024145
-2.4797669
-1.9846391
-1.5549592
-0.35062493
-0.57887312
0.32100338
-2.1514943
-2.4713838
-2.3320801
-2.5734802
-1.4112357
-2.0517131
-0.77102169
-1.0631444
-1.3333162
-2.4631766
-2.3986207
-2.9513903
-1.0411096
-2.1326663
-2.6152667
-1.8769303
-1.2554988
-0.37083723
-1.9169864
-2.7973933
-1.2178173
-3.1822658
-1.8243456
-2.3520899
-2.1293489
-2.1453246
-2.2947123
-0.94534217
-2.3129745
-2.557129
-1.6838679
-2.7149427
-2.3079483
-0.73015859
-0.75889272
-2.5224715
1.1487538
-0.14150001
-1.7485302
0.14541574
-1.5348312
-2.9048537
-1.2237632
-2.9733222
-2.474441
-2.1151484
-2.4321738
-1.2618249
-2.3787935
-1.8121892
-2.0186798
-2.1835475
-2.1408471
-1.7796484
-2.1088319
-2.4462961
-2.5529208
-1.0543082
-0.73556916
-2.4323073
-2.1965724
-1.717117
-2.2197851
-1.5250185
-2.1773129
-1.9048624
-1.7307126
-1.449736
-2.5474197
-2.1053335
-2.1599192
-1.6942919
-2.0693668
-2.1591793
-1.3402393
-2.5687396
-1.2116337
-2.239489
-1.1189274
-0.19646305
-2.5463622
-1.2538875
-2.149758
-1.7306171
-1.2364687
-2.0975172
-1.7092028
-2.2861548
-1.2528407
-2.3507594
-2.1842675
-1.1906174
-2.4663695
-2.0382878
-1.9077665
-2.0414012
-2.0476204
-1.227039
-2.3679772
-1.7931295
-1.2547664
-1.0808687
-1.7989647
-1.3365445
-2.1532144
-0.66388481
-1.6115826
-2.6609463
-2.3689676
-1.4212971
-1.2213201
-1.4807923
-2.1907264
-1.779853
-2.1024278
-2.1660855
-1.8056598
-2.1511109
-2.5796188
-2.0390343
-1.8688783
-2.3425424
-1.4328595
-1.8940569
-2.1398393
-2.0120263
-0.80387279
-2.7324084
-2.3944173
-1.3946423
-2.0341813
-1.4216843
-1.8252784
-2.6112146
-1.6628914
-2.3311491
-1.7438562
-2.7558292
-2.5500222
-0.73412369
0.06138941
-2.6221298
-1.8583009
-2.1200426
-1.7305865
-1.8834575
-0.9471519
0.13184008
-1.9491503
-2.4156362
-2.1058886
-1.3929334
-1.7475551
-0.6209174
-1.3924766
-1.3208087
-3.6029196
-2.2061388
-2.2958832
-2.1136445
-2.187373
-1.110278
-2.4762106
-0.85800603
-2.5465083
-2.169296
-1.9531489
-1.2125286
-0.89132578
-1.4290068
-2.4618422
-1.8691031
-2.047672
-2.1494099
-2.6265629
-1.4309053
-2.4183205
-2.0654912
-2.5407342
-0.58782302
-1.1118393
-1.8855953
-1.7557251
-1.0202638
-1.5095234
-1.9114343
-1.5271963
-2.0182505
-1.7559909
-1.3691438
-1.88411
-1.1076819
-2.2644962
-2.7542018
-1.4652419
-1.254635
-2.5455251
-1.4566207
-1.9155677
-1.5006863
-0.86473136
-1.1359724
-2.2682774
-1.0680849
-1.3156867
-2.2747975
-1.934912
-1.8390043
-2.4813104
-1.1204738
-1.5871732
-1.2319482
-2.5937938
-2.6462216
-1.4445288
-1.3068187
-2.4132623
-2.0243018
-1.6190328
-1.9861334
-1.8303381
-2.0782716
-1.8282146
-1.9047422
-2.1208609
-2.2897922
-1.9599429
-1.5677534
-2.1007139
-1.5389956
-1.9148509
-1.9527367
-1.92906
-1.9237662
-2.2031409
-1.8359654
-2.0211498
-1.8344103
-1.983988
-1.3634782
-2.5085779
-1.8329665
-1.3288089
-1.9348298
-1.0001922
-2.1606331
-1.7796368
-1.9655846
-2.1220782
-2.3935223
-1.7523585
-1.5916706
-1.6308443
-1.9111444
-1.8818382
-2.0127938
-2.0112939
-2.249095
-1.750152
-0.89768156
-1.9474861
-1.4941598
-1.9038407
-1.916742
0.67857495
-1.5845933
-1.9880361
-2.3784819
-1.7969269
-1.3711289
-2.0040874
-1.9446275
-1.8597279
-1.3217127
-1.4679622
-1.8160934
-2.2299299
-2.1004379
-2.3863479
0.012615779
-0.83481373
0.32659983
-1.1581942
-1.7045965
-2.1713532
-1.8936749
-2.4488143
-1.9384197
-1.4336813
-2.4921768
-2.0928648
-2.177728
-2.1784233
-1.4491468
-2.5200098
-1.5721045
-2.1148997
-2.3830199
-2.33989
-2.3427624
-1.8901662
-2.5194686
-1.9144406
-2.500113
-1.6742732
-2.1437212
-1.018261
-2.1858264
-2.4752171
-2.295327
-1.1872014
-2.0340065
-1.5246725
-2.1310867
-2.2282639
-2.1231062
-1.3893718
-1.2067931
-1.6632052
-1.8112523
-1.8852319
-1.4498296
-2.1216075
-1.5436084
-2.1266798
-1.8998562
-1.9079442
-1.1810382
-2.2992979
-1.6193669
-1.8190468
-1.5540003
-2.2169744
-1.0142482
-1.5085554
-1.9622922
-1.2169535
-2.5422023
-2.3884402
-1.7774463
-1.7221321
-1.1416559
-1.9289491
-2.0327238
-1.8845133
-1.6933968
-2.2166606
-2.1553279
-2.1784583
-2.5466056
-1.9113377
-1.2681405
-2.8210174
-3.0029741
-1.1762028
-0.86334541
-1.893177
1.5030855
0.1103388
-3.1252454
-1.7346847
-0.76311257
-1.8379023
-1.8080529
-2.5504685
-2.1799124
-1.0637663
-2.0346533
-1.9566949
-2.1781847
-2.3773963
-2.2375025
-1.5223869
-0.40786818
-1.0406824
-1.1734636
-2.4402792
-2.083546
-1.5452603
-2.0631693
-0.90812053
-2.4193565
-1.7285294
-2.277312
-2.3877674
-0.92796335
-2.4483379
-1.7683231
-2.1668857
-2.134171
-2.2278104
-1.676324
-2.338217
-2.435628
-1.627141
-1.0315351
-1.2640986
-1.7835486
-1.7549399
-2.01238
-2.268568
-1.808928
-2.5067588
-2.031223
-2.3298405
-1.0612551
-2.5723232
-2.3706642
-2.1826386
-2.4801865
-1.5700092
-1.056959
-2.531072
-2.9489219
-2.7388539
-1.8350487
-2.5221795
-1.2916559
-2.0010819
-1.8039089
-2.9215812
-2.2170507
-2.7576562
-1.4724951
-2.4706659
-1.2787457
-0.65069922
-0.94411762
-0.69722691
-0.39351547
1.4367262
-1.3410459
-1.6889019
-0.42153684
-0.12284603
-2.2983265
-1.2978979
-1.7111958
-1.7034541
-0.78489639
-1.9983442
-1.6181256
-2.2170569
-2.0365346
-2.1270231
-2.5086168
-1.3450557
-2.0778853
-1.1908653
-0.29073723
-2.4393785
-1.261551
-0.82008308
-0.25566148
0.40439437
1.0053233
0.46203987
-1.7449197
-0.11007692
0.007844518
1.6581093
-0.24839594
0.50368306
-0.49841941
-1.356302
-0.46088443
-1.0900577
-1.4077027
-0.6626467
-3.2264656
-1.2411562
-1.660941
-0.72720902
-2.6620441
0.56851993
-1.1412599
-1.4338902
-2.2232187
-1.8984457
-2.3875218
-2.0163603
-1.4581948
-0.67407319
-1.6706363
-2.4440294
-0.78397913
-2.5131343
-1.5532251
-1.5512449
-1.1320243
-1.3204138
-2.0074408
-2.5547051
-2.2254963
-2.5931257
-1.9519692
-1.1485287
-2.1554615
-1.79148
-1.7021619
-1.907109
-3.3905063
0.30738169
-2.8752951
-0.73159992
-2.2003552
-2.0586005
-0.94964681
-1.6312825
-1.0766173
-1.8846785
1.0793286
-2.1881102
-1.6678345
-2.779838
-2.593353
-1.9185347
-1.5507613
-2.2733331
-0.93288065
-0.10750295
-0.91396049
-0.20262026
-0.17192163
-0.20054746
-1.6864594
-0.81083432
-2.3497864
1.0665039
-0.99701863
-1.615164
0.22857723
-2.2654868
-2.778982
-1.9251768
-1.02195
-1.1921162
-1.369958
-3.1220334
-1.7678351
-2.1690745
-2.1089621
-2.3287736
-1.9139582
-1.1629118
-0.91636926
-2.1521032
-2.3664417
-1.7061629
-1.6474501
-2.0379936
-1.7010312
-1.9816687
-1.8912501
-2.1891864
-2.276733
-1.8366409
-0.60257278
-1.8975347
-0.98395458
-1.9639673
-1.9657977
-3.377251
-1.6806397
-1.9341219
-1.2864407
-2.4847407
-1.7997028
-1.8125629
-1.5675048
-1.2601037
-1.1996219
-1.9164822
-1.3042587
-1.8189515
-2.260963
-1.4993863
-2.0718264
-1.796515
-2.4144567
-1.8137689
-3.675399
0.41374759
-1.0422403
-3.2085554
-1.6084272
-1.8305263
-2.5629502
-2.0423687
-2.0025633
-2.2405452
-1.8948771
-0.73215788
-2.127908
-1.291221
-0.75981936
-2.0243821
-1.9748819
-1.2836231
-1.9898299
-1.7157207
-2.1043441
-2.2093444
-2.2389504
-1.9422829
-1.6307434
-1.7111774
-1.9588172
-2.5065445
-2.3140911
-1.8853412
-1.1638074
-1.023506
-1.9940632
-1.0428829
-2.7917629
-1.6712308
-1.1060957
-2.1272761
-1.9385255
-1.9137379
-2.0352237
-2.3272418
-2.6731276
-2.4199375
-2.5000168
-2.1593468
-1.9911387
-2.2131321
-2.4537532
-2.5706479
-2.3430462
-2.801025
-0.7163814
-2.189749
-2.22965
-2.2842192
-1.8316968
-1.0586351
-2.5151877
-2.5737027
-1.6082931
-1.0681332
-2.1451483
-0.53497362
-1.9174117
-1.8424092
-1.5031181
-2.5600148
-2.6020244
-2.1934609
-2.4404165
-2.2294359
-0.75785935
-2.6053686
-2.485207
-2.8294908
-1.8266053
-0.53034982
-1.649982
-2.4747504
-2.0145061
-1.7396308
-2.6931738
-1.7849342
-2.35601
-2.593333
-0.11598701
-1.0033774
-0.4331772
-1.5070663
-1.6289149
-2.1972459
-1.1871097
-2.5176037
-2.2836024
-1.8065328
-2.4906434
-2.1308718
-1.4543819
-2.3597605
-0.75857533
-2.7211554
-2.5726804
-2.4177955
-2.2808242
-2.8195511
-1.7604349
-1.2630133
-1.1053003
-2.7452977
-1.1207171
-1.1402152
-2.0964361
-2.2475784
-1.9392411
-2.0789026
-2.1200782
-1.6511324
-2.1676174
-2.740681
-1.2897975
-2.6779174
-2.0434234
-1.1006298
-0.90616159
-1.9651479
-2.3786902
-2.3891144
0.75195788
-2.4495297
-2.2156732
-1.584637
-2.4649517
-2.9966089
-2.3370751
-1.2965058
-2.2838072
-2.7812087
-0.47861594
-2.6487642
-0.65691328
-2.1405129
-2.3541994
-2.1368499
-2.7322661
-2.5401724
-2.0114575
-2.7496889
-2.4709245
-2.0569685
-2.6924367
-1.0285402
-1.1169625
-1.5111258
-1.0068975
-1.4335535
-2.4821434
-2.180511
-1.2699174
-1.1631031
-1.8993939
-1.2811656
-2.5575952
-2.5089452
-1.6664479
-1.9949468
0.067163075
-1.8276044
-1.9421876
-2.0169327
-1.365057
-1.4786058
-1.4781615
-2.05939
-0.79446225
-2.3692958
-2.0462891
-1.4760047
-2.1263313
-1.2347593
-1.1677323
-2.258879
-1.1397874
-2.2593405
-2.1689015
-2.4389109
-1.5277393
-1.1193073
-1.4649825
-0.39760815
-2.4620703
-1.414312
-2.2122034
-1.8383574
-1.8311279
-2.3321142
-0.7772469
-1.4080496
-0.63580244
-2.5611917
-1.7745132
-2.2699334
-0.89869679
-1.0701935
-1.7347226
-1.7273734
-2.2199833
-1.9062213
-1.6234766
-2.1378096
-1.327811
-1.4496371
-2.0823301
-0.052537255
-1.9385986
-2.20611
-2.4009703
-1.3812735
-2.2510159
-2.0557139
-2.2710051
-1.6067728
-2.1052198
-0.46434709
-1.3810736
-1.5347511
-1.282689
-1.4748697
-2.0487722
-1.7218314
-1.6059718
-2.1118141
-1.8219307
-1.9071904
-1.6716599
-0.84952432
-2.1244025
-1.2806622
-1.740545
-1.697345
-2.1339166
-1.1616658
-1.9999533
-2.070156
-0.22057995
-1.2880766
-1.5128164
-1.4057194
-2.1347362
-1.6026469
-1.7663021
-1.8990142
-2.0503116
-2.2033056
-2.1968605
-1.6950435
-1.8639295
-2.0092237
-1.6700255
-1.4988168
-1.4533996
-2.7326278
-1.7088721
-1.9333703
-2.1228305
-2.9558579
-2.1127184
-2.3287511
-1.2147619
-2.0237381
-1.8764399
-0.53836007
-2.2916893
-1.661005
-2.3739259
-2.1936149
-2.6007949
-0.49063017
-1.3283418
-0.78836858
-1.3102398
-1.8160122
-1.8292855
-2.1991161
-1.7983975
-2.798484
-2.3862334
-0.66102941
-2.8313491
-2.0378
-2.4620236
-0.91049801
-2.3327037
-2.660147
-2.6929462
-1.5504835
-1.1336938
-3.0001455
-2.2851902
-1.7959754
-2.5083666
-2.9903209
-2.6682319
-2.9287267
-1.5788013
-2.5334306
-2.7453486
-1.005873
-0.44907395
-1.6537159
-0.36423593
-1.7881242
-2.322747
-2.3057366
-2.1595464
-2.5632924
-1.0997521
-2.4804631
-1.4022063
-2.2484329
-0.81387077
-1.7170116
-1.4308496
-1.4015728
-3.0381679
-2.6506729
-2.4077546
-0.77035734
-0.025693293
-2.4692183
-2.7677998
-2.5356794
-1.6373873
-0.4622469
-2.8238081
-1.9544436
-2.9721947
-2.0736138
-2.5393025
-2.2691218
-2.1900788
-2.3930192
-3.1756388
-2.9585636
-1.7194434
-2.489502
-2.6011422
-1.3347953
-2.8275085
-2.8149908
-2.9375377
-1.962768
-1.1308087
-2.9857149
-2.2474502
-2.1016278
-2.5920661
-2.5431956
-2.5986754
-1.1536455
-1.8668799
-1.9359717
-2.4015521
-1.1117916
-2.0498427
-2.6882957
-3.0867144
-2.7364153
-2.1322553
-2.0088919
-2.6725416
-2.0810279
-2.1284743
-2.4041123
-2.1417393
-1.7765806
-0.98181698
-1.7696497
-2.8627985
-2.0886123
-2.1551988
-0.95831432
-1.7417459
-0.57970114
-1.0463226
-2.924947
-2.1367608
-1.9193676
-2.2284907
-1.658527
-1.8125832
-1.1605952
-2.9344159
-2.724066
-1.1993054
-2.4582518
-2.8411989
-2.4357716
-2.6570956
-1.7721043
-2.255248
-2.3568268
-3.3545471
-1.9265456
-1.1773525
-1.2264946
-2.2808235
-2.3825598
-1.7114504
-0.67948467
-1.0966818
-2.0690267
-2.2669053
-1.2666925
-1.4809464
-1.8696394
-2.3716322
-1.1667561
-2.3588154
-1.223432
-2.0004845
-1.1246807
-1.3336891
-1.9177809
-1.3309197
-1.8975361
-1.1657642
-1.0282221
-1.8787313
-0.62282015
-2.5707157
-2.0808045
-1.4673335
-2.0407203
-1.9773733
-2.2746488
-2.3819096
-1.2070661
-1.3820041
-2.1865192
-1.2157107
-2.3167024
-2.4502018
-1.2707414
-2.0482503
-1.5301644
-1.6623946
-1.4945491
-1.6632095
-1.8522912
-1.5124569
-1.2901097
-1.9706709
-2.2649192
-0.96406149
-2.5017256
-2.1241233
-1.3352761
-2.2685034
-2.0728238
-1.3392599
-1.7394329
-1.4617903
-2.8173126
-2.3111689
-2.2089173
-0.53958145
-2.0292113
-2.4365102
-2.631633
-1.7978428
-2.1215877
-1.9969383
-2.4371856
-1.9533186
-1.3600829
-1.6425205
-1.5919398
-2.107509
-1.9154639
-2.2474527
-1.5358198
-2.5349833
-1.5388135
-2.3298812
-1.8720068
-1.3028548
-2.149568
-2.1347444
-1.2920028
-1.9692917
-2.5659025
-1.090378
-0.97629517
-0.98198991
-1.4572288
-1.832367
-2.2752569
-2.724204
-1.7732192
-1.6421943
-1.8976125
-1.4255727
-1.6996259
-1.1708088
-2.1588637
-2.0045879
-2.4810541
-1.9859151
-1.4210143
-1.3544817
-1.8109662
-0.96625307
-1.2934523
-1.5240919
-1.1926013
-1.2785113
-1.8833587
-1.5593921
-0.023330346
-2.0797534
-2.1945626
-2.0512386
-1.8394864
-0.95524637
-2.2177096
-1.8762018
-1.726952
-2.0178151
-1.7406916
-1.1696109
-1.1244571
-1.9970645
-1.7099289
-1.2195667
-1.3897986
-1.238808
-1.2662051
-2.0031396
-1.4588089
-1.2511568
-1.6759491
-1.1598614
-1.2429347
-1.6196489
-1.2569372
-1.5550022
-1.8750909
-2.103039
-1.7683588
-1.1514354
-2.1719238
-1.0398724
-0.81133871
-1.4338418
-0.98520554
-2.1873857
-1.9453455
-0.93444847
-1.3233439
-1.6982987
-1.5067516
-1.1411648
-1.1573435
-1.9174834
-1.2638487
-1.5004558
-0.17301827
-1.2323852
-1.0964604
-1.2881786
-1.7947532
-0.66781188
-1.2111792
-1.1264916
-1.2719111
-0.56465902
-1.3213688
-1.7500599
-1.4496107
-1.5916915
-1.7537392
-1.8150199
-1.6575778
-1.0351642
-1.8324264
-1.1638618
-1.7955879
-1.2528652
-1.3027829
-1.7205359
-1.8151205
-1.3301839
-1.7754426
-1.3786657
-1.7524076
-1.5813662
-1.2087072
-2.1755121
-0.82172963
-1.5918842
-1.7895465
-1.2476437
-1.6714527
-1.1927315
-1.4673361
0.25154127
-0.61962419
-2.0807547
-1.9692286
-1.0390933
-1.4405442
-2.3171697
-1.2334743
-1.8849501
-1.967416
-1.9295002
-0.75598591
-2.3065651
-1.9485698
-2.0256507
-1.7448693
-1.5945303
-1.9714175
-0.75645023
-0.79695613
-1.9085683
-1.728177
-1.1193369
-1.5482646
-1.0467213
-1.5539415
-1.8042051
-1.167618
-2.7122602
-1.8140405
-1.1338794
-1.3260929
-1.6207179
-0.38087276
-1.8273508
-1.945612
-1.1864071
-2.1087333
-1.5710351
-1.3427329
-1.6477367
-1.4631697
-1.7553262
-1.1462554
-1.7936405
-1.3579402
-1.5930467
-1.4672598
-1.990473
-1.9010446
-1.3794406
-1.4591969
-1.5847685
-1.390703
-1.49251
-2.0100822
-1.4000773
-1.566999
-1.5064738
-1.480052
-1.6947773
-1.2203234
-1.598457
-0.86306319
-1.5926275
-2.1185056
-0.58123878
-1.1994352
-1.6753092
-1.513098
-0.28297564
0.14184151
-0.54464635
-1.611499
-1.4419697
-1.9235167
-1.2350742
-0.060100285
-1.8253757
-1.3305161
-1.5388426
-1.3817196
-1.6822799
-1.1326342
-1.6284718
-1.1579846
-2.1086471
-1.77774
-1.1416508
-1.2433841
-0.4237724
-1.394951
-1.6177111
-1.1056039
-1.6191729
-1.5738404
-1.150956
-1.5080637
-1.2745272
-0.94904632
-1.0053292
-1.0952905
-1.6952754
-1.7649059
-1.8377085
-1.3650799
-1.3026286
-0.99733076
-1.5263669
-1.0016247
-1.6001197
-0.82617923
-1.2095275
-1.8009322
-2.2816039
-1.9975967
-2.3736014
-1.9243914
-1.5311184
-2.1034312
-1.8033735
-0.99145341
-1.6147441
-1.3909049
-1.6015975
-1.2403568
-1.7436335
-1.6906344
-1.9527279
-1.5628541
-1.3726385
-1.8379348
-1.7981219
-1.1527677
-2.3033117
-2.0454913
-0.059472505
-0.12966827
0.034634811
-1.7253199
-1.8238659
-1.2939037
-1.6674045
-1.9077313
-1.3867109
-1.8438987
-2.4567694
-1.3366402
-2.1871948
-1.8026276
-2.0849344
-1.4825435
-1.8745741
-1.3855283
-2.0310807
-2.1705093
-1.2018545
-1.9511892
-0.9026931
-0.90025134
-0.014355641
-1.0012418
-2.0086685
-1.1202655
-1.6973582
-1.4231825
-1.4983678
-1.0231304
-0.99347844
-2.1055525
-1.4024591
-1.8787987
-1.2831944
-1.7355513
-2.2987289
-2.2063286
-1.4224534
-1.1474758
-2.0239976
-2.2564974
-1.7580191
-1.4947585
-2.001757
-1.0452565
-1.7070982
-1.2754173
-0.88175296
-1.8396867
-2.3720908
-0.46810941
-1.3937285
-1.6940961
-1.1029571
-0.99972136
-1.7263384
-0.72580511
-2.0463857
-1.695068
-1.7018911
-1.6776777
-0.48552195
-1.5171605
-1.7231266
-1.7034816
-1.2431783
-1.5061636
-0.8834346
-1.4688935
-1.4116185
-1.2899484
-1.6947173
-1.7763774
-1.555743
-1.557937
-1.0186475
-1.2677028
-1.5786776
-1.5449938
-1.6091217
-0.59309264
-1.6563697
-1.6633444
-1.7586187
-1.8214406
-1.136959
-1.6571145
-0.58974802
-1.0383238
-1.6906077
-0.80546244
-0.92869212
-1.2206924
-1.8478179
-1.5007036
-1.9382904
-1.5024986
-0.41043535
-1.7214674
-1.1666192
-1.2873755
-1.4933584
-1.7690895
-1.3479828
-1.7542271
-1.9421828
-1.6365904
-1.721431
-0.47133104
-0.30997216
-1.3985196
-0.73558974
-1.5398756
-1.679539
-1.4441728
-1.6373475
1.6459389
-1.7841694
-0.1304442
-0.25187684
-0.35347925
-0.011185233
-2.1380435
-0.87757597
-2.160726
-2.2960973
-1.6708213
-1.9712341
-1.5389414
-1.6287001
-1.521562
-1.8543489
-2.1569273
-1.7546558
-1.2284623
-1.9531999
-2.0024944
-1.4263107
-2.307903
-1.301146
-1.7384151
-1.4342392
-1.5417064
-1.6225713
-1.0960736
-1.8193427
-1.5292397
-1.9390604
-2.0271384
-1.9539917
-0.97830953
-1.8237974
-1.6760629
-1.462598
-1.8041613
-1.3431652
-1.5973895
-1.9883278
-1.9029406
-1.2570417
-1.6062715
-1.5276308
-1.7156938
-0.2496887
-1.9096738
0.28411011
-1.565886
-1.3476214
-1.646659
-2.8896222
-1.8202456
-1.3589682
-0.56582078
-1.3398451
-2.3704098
-1.4009641
-2.739086
-1.6869941
-2.7605653
-0.83834352
-2.207908
-1.6533926
-2.2726238
-2.2903091
-1.6576822
-2.5829656
-2.7719422
-2.7770457
-1.6138709
-2.0398778
-1.6673335
-2.2667722
-1.3449056
-1.7546853
-2.2896832
-1.8377812
-2.2704934
-1.7761453
-1.2903393
-1.3034601
-1.4410596
-1.5883274
-1.8877945
-1.9854104
-1.3934518
-2.229735
-2.4733263
-2.9452105
-1.3181818
-1.8520413
-2.0680019
-2.9426649
-0.92800528
-3.1096638
-1.4773347
-2.0254802
-1.4857478
-2.1650365
-1.6251637
-1.5488776
-2.2442468
-1.3925573
-1.9476653
-2.3443748
-0.6103871
-3.4479855
-0.9595814
-1.5434602
-2.3706542
-1.1019401
-3.1688968
-2.118922
-2.1992201
-2.800283
-1.1106485
-1.6518781
-2.2561586
-1.5404632
-3.7525657
-1.9555693
-1.882618
-2.0066754
-1.6665972
-1.9120982
-1.7910326
-3.233412
-2.1843969
-1.2272006
-1.6791371
-2.0171985
-2.608988
-1.2519885
-2.4370254
-1.6276034
-2.6313548
-1.8727341
-2.9278535
-2.326491
-2.890174
-1.8284945
-1.2301009
-2.1593604
-1.3100054
-0.11875704
-0.95749584
-2.9921247
-1.4303748
-3.0557195
-2.1036475
-1.4754349
-1.5241174
-1.2522561
-1.9594326
-0.84316041
-2.0901367
-1.0752788
-0.86695287
-1.8496914
-1.2958742
