-1.8182865
-0.99225766
-1.4906585
-1.6711314
-1.7834233
-1.3013622
-1.2939171
-1.5977275
-1.570893
-1.555512
-1.5929641
-1.6705388
-1.554774
-1.9750063
-1.6873964
-1.6397073
-2.1893642
-2.0225688
-1.441639
-2.0793023
-1.5296725
-1.6656152
-1.6623015
-1.5611074
-1.5312512
-2.6571292
-1.8925259
-2.3102226
-0.95246355
-1.2954524
-0.34688683
-0.97069563
-1.449283
-1.7090852
-1.8241457
-1.6992669
-2.0106879
-1.7115846
-1.6267002
-2.1658699
-1.9410837
-1.9517084
-1.7656979
-1.5690898
-1.725849
-1.9336296
-1.6922747
-1.6205118
-1.7277605
-1.9830469
-1.5533419
-1.3821288
-1.5059988
-1.8828295
-1.566276
-2.7792914
-1.4357576
-1.7193198
-1.1580407
-1.5069663
-1.9481881
-1.3837805
-1.2006118
-1.4440245
-1.7248246
-1.9358107
-1.4088779
-1.8737623
-1.4779624
-1.2391482
-2.1818494
-1.3576624
-2.31398
-1.9307402
-1.4856319
-1.7715545
-2.0427371
-0.65034052
-1.3942598
-1.2322256
-1.9988711
-1.5836212
-1.8204221
-2.2484236
-1.2194865
-2.087116
-1.3272653
-1.6626146
-1.751622
-1.6397644
-1.4964046
-1.5872571
-1.9516698
-1.5256957
-1.760806
-1.2056343
-1.8572152
-1.797748
-1.6401836
-0.8857033
-1.6173654
-1.4768908
-1.6957414
-1.4598056
-1.3316103
-1.5146356
-1.0879373
-1.3818715
-1.3198302
-1.7238176
-2.3519333
-1.3516588
-1.2131774
-1.9626742
-2.1450959
-1.5078493
-1.7452245
-2.4539287
-1.46976
-1.3149824
-1.812741
-2.6519755
-1.5295626
-0.80147853
-2.2513854
-1.5688744
-1.6486577
-1.2861721
-1.9531721
-1.6464286
-1.8263293
-1.5659118
-1.952989
-1.508471
-1.7578203
-1.4769993
-2.7294496
-1.3411186
-0.062557616
-2.1279023
-1.5564916
-1.0978449
-2.814092
-1.4681808
-2.6700625
-0.80498166
-1.6396448
-1.7255835
-2.1257687
-1.6517972
-2.3220947
-1.314122
-1.5958885
-1.4559032
-1.4764045
-1.9590998
-1.6000229
-0.82658602
-1.792399
-1.6647038
-1.8415616
-1.7401753
-1.0161079
-2.6561342
-2.2265763
-1.3595327
-1.5391405
-1.7748992
-1.535926
-1.9206096
-1.5656333
-1.5242636
-1.7995893
-1.8488569
-1.9614987
-1.7762535
-1.730741
-1.0104281
-1.5824346
-1.4745954
-1.2973649
0.36064987
-2.2751026
-1.5053762
-1.842034
-1.7061844
-1.5284629
-1.7921727
-1.7603591
-1.8179748
-1.676182
-0.62320051
-1.514343
-1.3133447
-1.53314
-1.590421
-1.9287606
-1.3712242
-1.667661
-1.6359137
-1.4830117
-2.7604317
-1.6067922
-1.7816283
-1.5991134
-0.8048271
-1.5648413
-1.8391715
-1.944189
-1.4659222
-1.3599525
-1.4580358
-1.8756642
-0.85734297
-1.6616825
-2.6769631
-1.9488192
-1.534041
-1.6537973
-2.033682
-1.7295939
-1.6512606
-1.2377651
-0.90455583
-1.6585681
-1.424418
-1.9824602
-1.6929038
-2.1130339
-1.3866539
-1.8002127
-1.7929943
-1.626847
-0.97407338
-1.6357926
-2.0722525
-1.5870572
-1.8560406
-1.5224085
-1.7613315
-1.5143963
-1.7125153
-1.5148288
-2.1031128
-1.8554443
-1.9182283
-1.4955495
-1.8011497
-1.6979087
-1.2016899
-1.4395399
-0.46653916
-1.2961757
-1.7120937
-1.7169118
-1.6707412
-1.519928
-1.4878923
-2.2938576
-1.5425071
-1.6765679
-1.548635
-1.5883059
-1.5930262
-2.4065013
-1.813379
-1.7798709
-1.8611646
-1.8429874
-1.9037016
-1.9950385
-1.9130206
-1.4512593
-1.6087783
-1.446181
-1.866594
-1.8704006
-1.8327968
-0.52960948
0.61899736
-2.4695384
-1.3739205
-1.8566678
-1.719837
-2.0754049
-1.6280536
-1.6654454
-2.3674967
-1.8366394
-1.1189826
-1.8721958
-1.8003554
-2.191458
-1.4583723
-2.3313845
-2.2033471
-1.8884331
-1.290103
-2.2938667
-2.6337614
-1.1585331
-0.95008193
-2.8963994
-1.1626275
-2.6150932
-2.8293203
-1.4229304
-2.5222843
-2.557059
-2.3456023
-2.834229
-2.1859608
-2.5264599
-2.317415
-2.6165598
-2.2801037
-2.3576054
-1.8439422
-0.4124421
-1.8420369
-1.2720265
-1.0851609
-2.1088562
-2.1910386
-1.2241588
-1.7635675
-1.7871525
-1.3327035
-2.4331546
-2.460169
-1.8074684
-2.283198
-1.9911534
-2.5926669
-2.0561807
-2.5827579
-2.4289089
-2.5304411
-2.1035082
-2.5994067
-1.3926895
-1.7621151
-1.762665
-2.4762885
-1.7808399
-2.6898467
-2.8596136
-2.0591894
-2.5860524
-2.8129838
-2.6460937
-2.5333227
-2.3402024
-1.8088432
-2.5617553
-1.6276546
-1.3971143
-2.0636998
-2.4276035
-2.2424165
-2.9701262
-2.6386257
-2.0999423
-1.4968775
-1.1795469
-2.6468302
-2.766155
-1.9915439
-2.3955901
-2.200834
-1.5586563
-1.5144616
-2.3084828
-1.371116
-2.1079015
-1.6277933
-2.95277
-3.0346078
-2.3258806
-2.8396905
-1.8753308
-2.3799601
-2.3729531
-1.7954102
-1.8450387
-2.1873153
-2.594568
-1.2239714
-1.2292407
-2.6152649
-2.0156818
-2.1528597
-2.5899851
-1.2531654
-2.5823244
-2.622715
-1.8801424
-2.6475787
-2.2462887
-1.8740538
-2.947957
-1.476152
-2.7030635
-2.0988073
-1.4605084
-1.941606
-2.7954124
-2.5607165
-2.5174435
-1.2168543
-1.8285298
0.14603576
-2.5484908
-2.3270002
-1.1534025
-1.8576423
-2.6348671
-2.4160359
-2.0065937
-1.8540788
-1.6151944
-1.7820973
-1.993541
-2.6175407
-2.7055739
-2.550469
-1.7522739
-2.5562971
-1.9340106
-2.4807549
-2.1750416
-2.0757243
-2.7691835
-3.0669002
-1.6618582
-0.95681528
-1.1085535
-2.3356448
-2.3910152
-2.2925281
-2.3871615
-2.1432693
-2.4244148
-1.1925236
-2.1783024
-1.3614823
-1.2542339
-2.9444407
-1.9175014
-2.9085316
-2.0519853
-1.2854491
-1.7556992
-2.4301394
-1.6565075
-2.5766812
-2.757127
-0.89677866
-0.38798273
-2.5549737
-1.3197087
-2.9994913
-2.7370532
-2.6123934
-2.497522
-1.7148126
-2.445333
-2.703632
-1.7961169
0.81253137
-0.51713549
-1.5709964
-0.90030235
-0.86578128
-0.51591481
-0.82567383
-0.43896326
-0.37123071
-0.397503
-1.0240489
-2.0091103
-1.704459
-2.5496287
-2.3600566
-2.1149312
-1.5194704
-2.385255
-2.8294299
-1.7385623
-2.4333061
-2.5382625
-1.7506089
-2.7249197
-2.9398078
-1.4354132
-2.2706046
-1.5987502
-2.9299374
-1.2506564
-1.0147399
-1.1070667
-1.5342415
-2.0190308
-2.2217637
-1.5038856
-2.1277369
-1.8287901
-1.4089921
-1.3676533
-1.6212131
-1.4249955
-1.7773753
-0.89054979
-1.2556313
-1.4380189
-1.2770474
-1.5708926
-1.5956622
-1.9149491
-2.3255317
-1.4368701
-1.232942
-1.6243252
-1.5093306
-1.3816273
-0.7489923
-1.8921509
-1.2829229
-1.625572
-1.7816515
-2.0523197
-1.7001425
-1.69855
-1.4370514
-1.1318596
-1.8142713
-1.7198384
-1.4626886
-1.7574243
-1.8011096
-1.225749
-1.6329122
-1.4422292
-1.443026
-1.5328778
-1.6269982
-1.1819932
-1.8238314
-1.4716302
-2.8427271
-1.8437278
-1.5921966
-1.468386
-1.7511152
-1.7822618
-1.5535429
-1.6071175
-1.6505399
-1.1699081
-1.6344426
-1.5955595
-2.0641267
-1.1880013
-1.7510189
-1.6931619
-2.2410899
0.2454234
-1.5131601
-1.4956676
-1.3962883
-2.4717001
-1.7346037
-0.86456015
-1.7240482
-1.0399259
-1.6238902
-1.3604142
-1.2273259
-1.2125863
-2.0813358
-1.3013919
-1.6788627
-2.0617872
-1.4757612
-1.3500524
-1.8517777
-1.429266
-2.4964769
-1.6682448
-2.467982
-1.6669661
-1.6607496
-1.5486132
-1.2467145
-1.7662412
-1.7197873
-1.3020107
-1.7192437
-0.99099635
-1.291997
-1.5611601
-1.8936312
-1.7615887
-1.626689
-1.7431285
-1.6689215
-1.5570627
-3.6654797
-1.2093875
-1.8021437
-2.2424694
-0.30069579
-1.5645971
-1.56912
-0.79093335
-2.2067191
-1.2450758
-1.5623204
-1.594974
-1.8000848
-1.1612797
-1.8587478
-1.0407317
-1.5827917
-1.7239284
-1.3143608
-1.9164371
-1.0383223
-1.4058737
-1.7263842
-1.6631676
-1.5255655
-1.8223152
-1.626395
-0.12881417
-1.0375939
-1.8623938
-1.3899926
-2.2710593
-1.6447368
-1.3357865
-1.6078236
-1.4960755
-1.4631924
-1.7303931
-1.6487862
-2.0586204
-2.2220433
-1.6194741
-1.4889384
-1.8329361
-1.1773021
-1.2067881
-1.2049947
-1.3937079
-1.5233607
-2.154579
-1.7747824
-1.6472787
-1.8033697
-1.5461804
-1.7852123
-1.8350641
-1.4370594
-1.6098905
-1.9242234
-0.19840649
-1.6499407
-1.5680956
-1.5599873
-1.8430086
-1.6833134
-1.6290471
-2.2936429
-1.5454674
-1.6752943
-1.5312785
-2.3820741
-1.7535639
-1.9915927
-1.4603887
-1.6596779
-1.6522293
-1.4734823
-1.7195418
-1.9738312
-1.8122577
-2.7840461
-1.3610698
-1.7170022
-2.0449707
-1.7054979
-1.592389
-2.3566315
-1.8882617
-1.0773146
-1.5177866
-1.6336394
-1.6914075
-1.9128947
-1.4670546
-1.6551989
-1.233676
-0.84797536
-1.262007
-1.5727476
-1.9355253
-2.2933413
-1.8100185
-2.6611334
-0.32415004
-1.6028556
-1.5634595
-1.7834541
-1.6765557
-2.4196626
-1.644171
-1.2268263
-1.8025877
-1.5517094
-1.4621784
-1.7806353
-1.6058048
-2.8508598
-1.6039429
-1.9350515
-1.6059433
-0.27898264
-1.2009877
-3.4392544
-1.6260706
-1.3776561
-1.5422076
-1.7353498
-1.5903931
-1.5132933
-1.184078
-2.3943454
-1.2738812
-2.1556931
-1.1349044
-2.06283
-2.1059203
-1.4360855
-1.8198751
-1.7946213
-1.4458393
-1.6112621
-1.6602843
-1.8508815
-1.1139077
-1.5723369
-1.053118
-1.3322754
-1.7125802
0.087493133
-1.5126286
-1.4364291
-2.0783889
-1.2650255
-1.818717
-1.5250392
-1.9059462
-0.39639363
-1.6860448
-1.8055391
-1.6646255
-1.6615859
-1.3104281
-2.3323304
-1.9395491
-1.6734145
-1.4182467
-2.0465291
-1.6377213
-1.8349358
-1.5562539
-1.2850434
-1.6207083
-0.95692567
-1.7115141
-1.5799083
-2.4199281
-0.77137509
-1.5309702
-1.5830651
-1.4112163
-1.5450678
-1.7116854
-1.6216629
-1.7830785
-1.7548751
-1.4930277
-1.660459
-1.6208073
-1.6274182
-1.6311812
-1.8484217
-1.9792552
-2.1124305
-1.1473873
-1.2339625
0.08106415
-1.5360434
-1.9705126
-1.6574333
-1.9307553
-1.7957404
-2.1776177
-1.8551523
-1.5577172
-1.7640939
-1.7303052
-1.8233284
-1.6976125
-1.6226187
-1.7670159
-1.5630099
-1.7195773
-1.70212
-0.65273431
-1.7838823
-2.0552729
-1.670582
-2.075578
-1.5634029
-2.0816484
-1.7676217
-1.5615581
-1.6755528
-1.1838343
-3.0653562
-1.706405
-1.394209
-1.7474026
-1.6455202
-1.1297288
-2.0088194
-1.9317398
-1.6089044
-2.9945073
-1.553274
-1.1761684
-1.8512579
-2.0190399
-1.5635757
-1.8074406
-1.9958545
-1.4936422
-1.6666926
-1.8741093
-1.5698656
-1.6736849
-1.6062739
-1.3895597
-2.0546324
-1.4357469
-0.38610153
-2.0835252
0.48376329
-1.6370623
-1.5636229
-1.2631498
-1.4352977
-0.9244773
-1.5032218
-1.689473
-1.7704743
-1.4584981
-3.0441114
-1.4391353
-2.0823774
-1.5353088
-1.5441673
-2.2061565
-1.6396368
-1.7270041
-1.0339369
-1.6109934
-1.2655626
-1.7238435
-1.6896159
-1.8890562
-1.6474994
-1.1570291
-1.2192963
-1.483699
-2.0187629
-1.6762408
-1.8643312
-1.7428139
-1.7301075
-1.5176712
-1.8850877
-1.3672203
-1.5752944
-1.859336
-1.1189637
-1.0736975
-2.6097551
-1.70942
-2.8935686
-1.7071367
-1.7137169
-1.7470544
-1.5564289
-1.7517503
-1.4286871
-2.0119632
-2.0728459
-1.187318
-1.7661826
-1.1814121
-2.5929027
-1.1923931
-1.4103434
-1.3715466
-1.5714923
-1.578362
-1.2380177
-1.6015514
-1.4752322
-2.0039326
-1.6128207
-1.3602121
-2.0331222
-1.4877337
-1.9681859
-1.4096389
-1.7349216
-1.522504
-1.9071815
-1.7339527
-1.3394317
-1.2994356
-1.7534131
-1.894149
-1.5327273
-1.7770261
-2.2144075
-1.7669261
-1.1586487
-1.0735402
-1.307758
-1.8382462
-1.6277531
-1.7416109
-1.9177694
-1.7164523
-2.526357
-1.9084046
-1.5552105
-1.3348838
-1.248306
-1.124165
-1.8860834
-1.7567843
-1.8764355
-1.8105691
-1.8107064
-1.9067334
-1.5398953
-2.0693705
-1.916737
-1.978646
-1.4325221
-1.5002692
-1.9160803
-1.013446
-1.4110407
-1.302249
-1.2632911
-1.7106375
-1.2407829
-1.6963848
-1.8180592
-2.3418794
-1.7136689
-1.3906626
-1.9327221
-1.7341084
-0.9245353
-0.93255146
-1.718392
0.6778659
-1.6827726
-1.4079701
-1.5028443
-1.4485791
-1.6729705
-1.5267274
-1.2473163
-1.1133688
-1.8228148
-1.664412
-1.4375298
-1.2788399
-2.178241
-1.3260985
-1.6276698
-2.095724
-1.4315031
-1.1803879
-1.7798993
-1.5061201
-1.44776
-1.3010268
-1.6272511
-2.5214725
-1.985449
-1.674279
-1.9608979
-0.57811485
-0.81817773
-1.5118202
-1.2767908
-2.0914088
-1.3959973
-2.0700642
-2.1574218
-1.3282902
-1.6090984
-1.4008558
-1.8959543
-1.5834474
-1.8962991
-1.1737203
-1.6345715
-0.7743129
-1.573995
-1.5129566
-1.7818529
-0.7667871
-2.1057209
-1.5557552
-1.9114885
-2.2271607
-1.5422504
-2.6378252
-2.3135633
0.51327934
-1.5245116
-1.6821328
-1.5007381
-2.2438676
-1.8124915
-1.4170677
-1.263653
-1.8354778
-1.6068772
-1.5042832
-1.4177891
-2.1252512
-1.679483
0.69690383
-1.804755
-1.2580317
-1.6682789
-1.4682306
-1.7078796
-1.8053652
-1.5652008
-1.5616819
-1.6500379
-1.4356229
-1.7956421
-1.4913485
-1.7689857
-1.5463025
-1.839799
-1.7559217
-1.9050242
-1.2944491
-0.65986998
-1.2770154
-1.9473923
-0.52727099
-1.7817728
-1.7545893
-1.7410231
-1.5128249
-1.8485055
-2.0498691
-1.6075772
-1.6090629
-1.85436
-2.1615806
-1.6456942
-0.65541991
-1.6215238
-1.5072711
-2.0768442
-1.5824809
-1.6378922
-1.5217507
-1.458239
-2.3128148
-1.3972332
-1.5614312
-1.1757926
-1.5229406
-1.5094395
-1.9217006
-1.2205789
-1.6430542
-1.5135586
-1.2861469
-1.1093295
-1.5760869
-1.7151302
-1.9105139
-1.5694624
-1.7295716
-1.6310636
-1.9221719
-1.5139836
-1.1618372
-1.6106891
-1.6000462
-0.043337086
-1.656467
-1.6528292
-1.6425707
-1.5125582
-1.5129151
-2.3992013
-1.4108386
-1.6017118
-1.3027135
-2.3050859
-2.2596795
-1.1729946
-1.5854095
-1.6217659
-1.4835605
-1.7227315
-2.2475584
-1.4866212
-1.9967927
-1.9470769
-1.6772708
-1.8733636
-1.7096348
-1.6354646
-1.3741465
-1.638046
-1.5742053
-1.5916281
-1.5523956
0.71010068
-1.8115092
-1.6460925
-1.3877046
-1.8079343
-1.5476423
-1.627497
-1.8046205
-1.5928239
-1.5376692
-2.2541917
-1.4558431
-1.8170462
-2.0809709
-1.4430259
-1.1845449
-1.4482243
-1.9839785
-2.0427207
-1.4476265
-1.2534045
-1.8502762
-1.7827144
-1.1935843
0.24022388
-1.7904118
-1.9566376
-1.8344826
-0.38819497
-1.7454014
-1.4970749
-1.5573277
-2.7922457
-1.9610396
-1.450386
-1.3963867
-1.7817189
-1.6746889
-1.7597746
-1.9405366
-1.9089096
-1.7642403
-2.1287362
-1.9477515
-2.0204438
-1.7353374
-1.7746107
-1.4376933
-1.4241086
-0.77480987
-1.7458163
-1.289905
-1.1405184
-1.6193772
-1.8637703
-1.9870885
-1.7615829
-2.1244636
-1.6347336
-1.4327447
-1.9044158
-1.6387143
-1.297185
-1.3787421
-1.2794599
-1.7198789
-1.4901256
-1.5111401
-1.1820083
-2.1683527
-1.334442
-1.5050548
0.62982356
-1.5151894
-1.7286167
-1.741466
-1.7848301
-1.3955402
-1.4290878
-2.5092927
-1.5343184
-1.6237029
-1.9231111
-1.5163928
-1.4761892
-2.0067577
-1.6041937
-1.5760468
-0.83344806
-2.329488
-1.6705796
-1.7074398
-1.1770007
0.1946267
-1.6855563
-1.7796653
-1.5286772
-2.2410466
-1.2215512
-1.8516263
-1.8652534
-1.2608956
-1.4329864
-1.850466
-1.4886166
-2.3624786
-1.7878405
-2.3250054
-1.7501055
-1.6246111
-1.4404936
-2.1928162
-1.511792
-1.8231346
-1.8925675
-1.8108696
-1.5330585
-1.6375943
-1.7379387
-2.4581942
-2.0481618
-2.4624289
-1.5926037
-1.3587566
-1.566921
-1.9730715
-1.1458922
-2.167766
-1.6252556
0.63783419
-1.5674715
-1.748392
-0.41151841
-1.7827199
-1.5670204
-1.5619651
-1.5883247
-1.4943631
-1.4371449
-1.9555449
-1.7828166
-1.9279737
-1.9642148
-2.1884408
-1.5735797
-1.7552737
-1.2362429
-2.0407782
-1.6140729
-1.5353327
-1.5791314
-1.6701821
-2.1728604
-1.6544855
-1.1531828
-1.452775
-1.7436765
-1.59268
-1.5923891
-1.8987997
-2.4907559
-1.6282944
-1.7305793
-1.1267435
-2.0583042
-1.7613573
-2.0595472
-0.97667622
-1.86252
-1.556306
-3.2047173
-1.5515567
-1.9130013
-1.7115072
-1.5390603
-1.6987404
-1.6645257
-1.6259035
-1.4269707
-1.3115422
-1.5144248
-1.5491873
-1.4239102
-1.6137943
-1.8696012
-1.7506602
-1.3757859
-1.3902198
-1.4471171
-1.2547849
-1.6379801
-1.2200532
-1.5389292
-1.9638409
-1.7725939
-1.7659557
-1.4939447
-1.4542122
-1.9038282
-1.7995136
-1.5559191
-1.3264477
-1.9258123
-0.65304829
-1.6228318
-1.7881132
-1.6928282
-2.4069138
-1.1828569
-1.5428278
-1.4677094
-1.7549066
-1.7908151
-2.1385018
-1.1223179
-1.0816563
-1.4361381
-1.480449
-1.724788
-2.013928
-1.3984964
-1.6939492
-3.3655214
-2.5117025
-1.086484
-1.5118168
-1.3712921
-1.6542714
-1.9728374
-1.5788108
-1.6558549
-1.2365265
-1.6152778
-1.4908557
-1.3505065
-1.638926
-2.4340619
-1.5448328
-0.40396803
-2.7740988
-2.5479351
0.49710799
-1.3114644
-1.5955039
-1.5888522
-1.8728191
-1.4204261
-1.6101
-1.5691661
-1.4866901
-1.6398783
-1.7237447
-2.4455061
-1.4744543
-1.6387537
-1.7243578
-1.3302306
-1.4187687
-1.7555133
-1.9060399
-1.1199782
-1.4908884
-1.7823359
-1.4758654
-1.2912116
-1.3505174
-0.86541397
-2.3623486
-1.2978821
-1.6602987
-1.4896065
-2.0347267
-1.7457401
-1.6222284
-1.6530815
-1.7300673
-1.2453927
-2.3312467
-1.8332576
-1.9874809
-1.607224
-1.9110399
-2.5205016
-1.8862669
-1.5150779
-1.2195866
-1.6791211
-0.96075077
-1.6637828
-2.3619834
-2.4076089
-1.9220375
-1.5400686
-1.6651556
-1.4635995
-2.3947017
-1.3806219
-1.7795128
-1.6642345
-2.4250421
-0.53048142
-1.7132374
-1.9623612
-1.57732
-1.1576611
-1.4472307
-1.3827154
-1.7653965
-1.3831424
-1.7016635
-1.4512119
-0.82212535
-1.4713514
-2.5331031
-1.9996351
-1.6605747
-1.8158522
-1.6512041
-1.9637673
-1.586727
-1.608257
-1.7059821
-1.5050145
-2.0308119
-3.0004648
-1.7985871
-1.5614399
-1.4596468
-1.5581541
-1.6836452
-1.7505904
-1.4812865
-1.6115214
-1.7739004
-1.7198485
0.27633785
-1.4648322
-1.7907275
-1.2732157
-1.5455525
-1.8729036
-1.412258
-1.1758118
-1.6298362
-1.5488239
-1.8584302
-1.5009477
-1.5802305
-0.53769256
-1.8853904
-1.4278774
-2.5395686
-1.7997735
-2.3353302
-1.5028727
-1.0881748
-1.6694311
-1.716233
-1.5763551
-1.5880231
-2.0548479
-1.2952189
-2.06335
-2.0989856
-1.3885996
-1.4802567
-1.3748577
-1.3207098
-1.8282856
-1.652928
-1.1973007
-1.8993554
-1.7452536
-1.8383836
-1.6774954
-2.179603
-1.5336726
-2.0030012
-1.6918611
-1.5583108
-1.804434
-1.6884751
-1.6843039
-1.5469879
-1.5321538
-1.7722103
-1.0613271
-1.810549
-1.4989783
-1.5054486
-1.4400701
-1.399295
-1.54049
-2.1601694
-0.99495102
-2.0874932
-1.4441357
-2.0116437
-1.8090391
-1.3333246
-1.5042467
-1.3613344
-1.5837808
-1.9927095
-1.9281088
-1.474945
-2.6930505
-1.2681987
-1.6802848
-1.5874093
-1.2682859
-1.9347837
-2.5004943
-2.2233376
-1.7971953
-1.6913125
-0.94892336
-1.5588459
-1.4339693
-1.4523752
-1.5989643
-2.4608381
-1.6008926
-1.6140209
-1.1122237
-1.660295
-1.9765609
-1.2291028
-1.732328
-2.5279384
-2.0235906
-1.5888809
-1.2929948
-1.1994464
-1.4548628
-2.0685866
-1.9485071
-1.6173373
-1.6740742
-1.5521603
-1.475487
-1.2664174
-1.4295156
-1.8408331
-2.2903384
-0.1828639
-1.7348367
-1.7277519
-1.6762717
-1.5487255
-1.8879014
-1.7953888
-2.6802564
-2.3380227
-2.0625294
-2.3624727
-1.599851
-1.6089198
-1.2418947
0.086387929
-1.8510022
-1.9344218
-1.5911094
-1.8093027
-1.3641275
-3.0107778
-3.0012233
-1.7956773
-1.4301767
-2.0508202
-1.6539667
-1.5577779
-1.708574
-1.8975042
-2.1000876
-2.0282951
-1.9384148
-1.7765482
-1.4258963
-3.6524567
-1.6434263
-1.8238757
-1.5772189
-1.551511
-1.8020253
-1.7081664
-1.7877071
-1.5169631
-1.7065034
-1.5588823
-1.5927378
-1.4506864
-1.1327903
-0.9767985
-2.1383609
-1.6372491
-1.3883964
-2.5617341
-2.2842936
-1.8547596
-1.7641263
-3.0838914
-1.2655821
-1.9539386
-1.7981014
-0.5980444
-1.3740303
-1.9938396
-1.7076301
-1.5216304
-1.7435456
-1.5876025
-1.1496478
-1.573893
-1.8646846
-1.2859967
-1.583829
-1.8375281
-1.766111
-1.9609633
-1.2597945
-1.4730938
-1.6775406
-1.6998218
-1.2932409
-1.3221092
-1.5968068
-0.9833742
-1.3969062
-1.6109416
-2.1833821
-2.151473
-0.79587819
-1.8902536
-1.6069792
-1.7808628
-0.16722018
-1.9179477
-1.4990486
-1.6770844
-0.978395
-1.018114
-1.9568693
-1.5786148
-1.0110166
-1.1564705
-1.8044073
-1.3392874
-1.7751033
-0.17792925
-1.6442849
-1.9030367
-1.4386868
-1.2172944
-1.5597664
-1.4728754
-1.921595
-1.7278904
-1.4173892
-1.4115017
-1.3186604
-1.4516835
-1.9250356
-1.5345227
-1.8815788
-1.6656045
-1.6692468
-1.794833
-1.7547914
-1.6201637
-0.30379841
-1.4910204
-0.88826304
-1.7157017
-1.6762197
-1.7748121
-1.5856305
-1.6909469
-1.7423842
-2.3035331
-2.265104
-1.5259589
-1.3189762
-1.6761147
-2.1102044
-1.6702973
-1.3052311
-1.4815383
-1.8084929
-1.6864628
-1.8738105
-1.9776001
-1.5239366
-1.6125673
-1.7483606
-1.6542439
-2.1404023
-1.5873474
-1.5899019
-1.2763737
-0.81772557
-1.185451
-1.8154277
-1.4247501
-2.2318753
-1.3671735
-0.76524954
-1.4091955
-1.3298824
-1.8005823
-1.6765851
-1.9764025
-1.6119748
-1.4536247
-1.4652138
-1.3407185
-1.6686884
-1.9652618
-1.604041
-1.7654704
-1.6864873
-1.7097286
-1.4017629
-1.4726939
-1.453881
-1.6630578
-0.71153818
-2.3426257
-1.4985585
-1.5580427
-1.2792055
-2.3904665
-0.68718456
-1.8242139
-1.0996997
-1.6438877
-1.4660808
-1.9019597
-1.5509168
-1.7974166
-1.7871528
-1.2621578
-1.3813932
-1.5763929
-0.77313502
-1.6527239
-2.4984435
-1.678418
-1.4732559
-1.6349221
-1.6949169
-1.8086115
-1.2653762
-2.6429974
-1.523338
-1.3589495
-2.0944377
-2.1637975
0.42983785
-1.505795
-1.5412127
-1.6495643
-2.6805632
-1.5404914
-1.5891114
-1.4372563
-1.4469979
-1.0789329
-1.4464609
-2.2032146
-1.1609536
-1.2411981
-1.8109922
-1.4514915
-2.1702057
-2.7284787
-2.1579429
-1.4991294
-2.341128
-1.5354799
-1.5293241
-1.6905119
-0.61485151
-1.394352
-1.3681527
-1.5589249
-1.5400082
-2.281814
-1.2647633
-1.6709521
-1.6114427
-0.70108136
-2.1243962
-2.4004034
-2.1182979
-1.4578097
-1.8275907
-2.1803699
-1.6150696
-2.7396736
-1.4967069
-1.5968166
-1.5583025
-1.189454
-1.4174371
-1.2305202
-2.1599529
-1.4754315
-1.1727121
-1.4574732
-1.7774847
-1.7367406
-1.1161376
-1.4598662
-1.9077917
-1.4669949
-2.9614516
-1.6356027
-2.1316766
-1.6585544
-1.3323839
-0.89075287
-2.454482
-1.3138484
-1.4320974
-2.1014441
-1.8285481
-1.5831547
-1.7697555
-1.5471903
-1.306108
-1.2398166
-1.4082749
-1.8449897
-1.7614053
-1.69717
-1.6098526
-1.8585565
-1.9181866
-1.4672194
-1.6365282
-1.6466402
-2.5669405
0.85609867
-1.7820708
-1.3092585
-1.9129851
-2.0452361
-1.6379919
-1.487167
-1.6953073
-1.5263559
-1.8047295
-0.789268
-1.5873383
-1.6683408
-1.3837622
-1.3227074
-1.8143091
-1.5767949
-1.3588578
-1.6315611
-1.4905814
-1.1123805
-1.9167811
-0.75328003
-1.9200697
-1.4173478
-1.2166817
-1.6628116
-1.3503928
-1.779518
-0.89685366
-1.5962071
-1.3386645
-1.7059483
-1.8112974
-1.6106977
-1.9535042
-1.4511
-1.3929362
-1.5085796
-1.613861
-1.7135202
-1.9642464
-1.5557291
-2.1725426
-1.773316
-1.5317307
-1.192988
-2.3088493
-1.3423561
-2.1377259
-1.8825272
-2.0063356
-2.1038733
-1.5135691
-1.8787071
-1.6305212
-2.0086793
-2.246137
-2.0038177
-2.6237862
-1.9502423
-1.6311926
-1.6395223
-2.0163259
-2.3243127
-1.5312086
-1.3722799
-1.2952886
-1.4117784
-1.5740933
-1.0713984
-1.6911472
-1.2427029
-2.0904015
-1.7095507
-2.3721367
-1.2618716
-1.4973031
-1.7103847
-1.3554012
-2.3126671
-2.2907275
-1.4505374
-1.5890439
-1.4018537
-2.117667
-1.8542903
-1.7423136
-1.8124615
-2.953121
-1.2818774
-1.5836627
-1.9865317
-1.760206
-2.1237703
-2.0651392
-1.6949611
-1.4060527
-1.9159358
-1.44384
-1.1783755
-1.4041482
-1.8896999
-1.5053681
-1.3277158
-1.6775613
-1.8203998
-1.4020707
-1.6544153
-1.8204991
-1.4301162
-1.6448392
-1.2605658
-1.2543587
-1.9221544
-1.7002429
-1.7575179
-1.7910141
-2.300387
-1.853533
-1.6320745
-1.3232342
-0.3079911
-1.5426777
-2.4915888
-0.83067517
-1.8201912
-0.33746319
-1.748904
-2.3833403
-1.5318068
-1.6847942
-1.5089982
-1.8066766
-2.434812
-1.6932949
-1.7183936
-1.6109626
-1.9364043
-1.7894973
-2.9865083
-1.1945735
-1.5194247
-1.8951469
-2.0676541
-1.4392524
-1.2851141
0.15200351
-1.7599354
-1.3547429
-1.6929109
-1.4336645
-1.8188258
-1.2328064
-1.588103
-2.0618539
-1.9097597
-1.9118112
-1.764911
-2.0018237
-1.7864168
-1.5609766
-1.7187839
-1.290655
-0.77994417
-1.7182158
-2.1530615
-1.5131386
-0.55800957
-1.3825854
-1.8816215
-1.4461078
-2.018318
-1.5869051
-1.7121275
-1.3025727
-1.4144668
-1.4619355
-1.6682297
-1.7492265
-2.0254176
-1.3783747
-1.9157789
-2.1280819
-1.8774002
-2.2517403
-2.1063032
-0.32607642
-1.600157
-1.1614251
-1.4999172
-1.7355644
-3.3153416
-2.240494
-2.0832939
-1.790387
-1.8218299
-0.12751291
-1.4549944
-1.9035807
-1.8475501
-1.6093816
-1.6967236
-1.6929888
-3.2225624
-1.6020749
-1.6158761
-1.8847816
-2.6999035
-1.9679394
-2.3619503
-1.6929113
-1.5109537
-1.2710426
-1.8575693
-1.6233171
-1.2911381
-1.5288863
-1.5248793
-1.1730436
-1.6893184
-1.5886386
-1.8860962
-1.2397365
-1.3309068
-1.6906185
-2.0069403
-1.6196912
-1.2562273
-2.1554173
-1.5696875
-1.7262772
-1.7778305
-1.7000069
-1.1544665
-1.6595357
-1.5745446
-1.828045
-1.3037247
-1.7451672
-1.5954489
-1.8497269
-1.7126486
-1.4386368
0.36400092
-1.5069748
-1.7658152
-1.7239809
-1.6384787
-1.6065966
-1.9352966
-2.5177363
-2.3409286
-1.3972342
-1.522781
-1.6206349
-1.4727402
-1.757182
-1.6699491
-1.6231307
-1.7612572
-1.4905713
-1.5093014
-1.4830508
-1.6224489
-1.2902192
-1.3716667
-1.5641805
-1.4236722
-1.6503563
-2.1082956
-2.1639279
-1.9770001
-1.8045164
-1.9912545
-1.7899251
-1.6133303
-1.6636845
-1.4288092
-0.95637264
-1.4696578
-1.6732835
-1.8069147
-1.6021643
-1.4853305
-1.541561
-1.364196
-1.197964
-1.6835352
-1.5619587
-1.8817292
-1.6928805
-1.7935154
-1.5514696
-1.2851113
-2.1454767
-1.5703928
-1.7301746
-2.046845
-1.7006459
-1.5573318
-3.0671831
-1.9579583
-1.3346261
-1.3267808
-2.4211383
-1.4557638
-1.3958309
-1.658193
-2.1648791
-1.3147987
-1.673061
-2.2438079
-2.0191238
-1.6265789
-1.1887188
-1.5297833
-1.937797
-1.58866
-1.9138678
-2.1307628
-1.7532761
-1.7474345
-1.7363551
-1.9135419
-1.7287855
-1.7811886
-1.2958919
-1.5371686
-1.2796834
-1.285549
-1.8292205
-1.8536712
-1.6149651
-1.425677
-1.4750769
-1.5311195
-0.020017733
-1.5041867
-1.1454956
-1.2111202
-1.4508216
-1.6265366
-1.8144712
-1.6539253
-1.6187826
-1.4342629
-1.6498446
-2.1624048
-1.5733766
-1.6618179
-1.6228279
-1.4593003
-1.7018617
-1.6400003
-1.500482
-3.9405379
-1.3504147
-0.95734615
-1.4608807
-2.1987798
-1.765507
-1.9231259
-1.665218
-1.74513
-2.8017667
-1.8890825
-1.6789152
-1.6136684
-1.561094
-1.123799
-1.6722397
-1.6884938
-1.4814863
-1.8569654
-1.5399222
-1.6956704
-1.3754745
-1.7422176
-1.4918342
-1.6076722
-2.284549
-1.7193703
-1.7762316
-2.0625341
-1.3542312
-1.9455814
-1.5580253
-2.0595369
-1.6739657
-1.6351159
-1.3981004
-2.0536431
-1.4481586
-0.089286055
-2.3172098
-1.5160189
-2.6126045
-1.0445692
-1.8210477
-2.1245385
-1.7600476
-0.8504219
-2.0343932
-1.7891869
-2.1444134
-1.1286068
-1.6487766
-1.4937037
-1.448345
-2.2007313
-1.3181892
-0.81872336
-1.3959251
-1.4285633
-1.6400965
-2.2394475
-1.5041349
-1.5565132
-2.0009015
-1.4191794
-1.333563
-1.89735
-1.5209745
-1.7628319
-1.767912
-1.1643118
-1.9914111
-1.1161061
-1.8285019
-1.3520667
-1.5528164
-1.6402989
-1.8930414
-1.601317
-1.9024371
-1.719211
-1.6340691
-1.3525564
-1.422908
-0.76260667
-1.9539193
-1.3089506
-1.562671
-1.6902119
-1.9853713
-1.0756339
-1.6038896
-1.3449361
-1.9321322
-1.1988744
-2.4842941
-1.730298
-1.6597761
-1.6339764
-0.56217544
-1.6179444
-1.6111773
-1.6548156
-1.3977395
-1.2637466
-1.5104183
-1.3842416
-1.8928996
-1.4584918
-1.4384787
-1.7161025
-1.5429292
-0.43083252
-1.7396161
-1.8183007
-1.4912189
-1.7622234
-1.7425822
-1.9344296
-1.6538075
-1.4822761
-1.9037481
-1.5927161
-1.5565203
-1.0759883
-1.6003664
-1.5334214
-1.9118629
-1.7275605
-1.4233221
-1.7502277
-1.5121103
-1.1507487
-2.060883
-2.3037124
-1.56033
-1.6187229
-2.019231
-1.5174428
-1.9900499
-1.5961642
-1.4725745
-1.868194
-1.7661274
-1.5803592
-1.8986667
-1.5098564
-2.187331
-0.71190067
-1.4800695
-1.3716758
-0.74185127
-2.1666187
-1.6905135
-1.6045467
-1.7307022
-1.6372128
-1.85936
-1.3845239
-2.3231401
-1.6283897
-1.6275309
-1.3385915
-2.1894874
-1.4133448
-1.6722644
-1.3390794
-1.7976956
-1.6012887
-1.4221536
-1.5382576
-1.5471641
-1.2011833
-1.0522558
-1.0032201
-1.6942213
-1.4762546
-1.6672261
-1.3894626
-1.5676933
-1.8492158
-1.7049477
-1.9636127
-1.8496541
-2.1311651
-1.6707446
-1.7998496
-1.3018071
-1.7847577
-1.176905
-1.0042871
-0.033482236
-1.4690783
-1.9529461
-1.5409476
-1.9975825
-2.2423105
-1.6308267
-1.6158183
-1.540894
-1.3149565
-1.4201084
-1.510521
-1.864852
-1.2772534
-1.7214626
-1.6593862
-1.7211052
-0.97539126
-1.3207756
-1.1495953
-2.0097176
-1.8573421
-1.6653706
-1.4384256
-0.96484806
-1.2280275
-1.4821125
-1.053696
-1.7121892
-1.5785988
-2.1492223
-1.6530243
-0.24127049
-1.6100835
-2.5468004
-1.6899387
-1.9295405
-1.8121083
-1.5905304
-1.9119381
-1.5279893
-2.0751174
-1.8037753
0.45774894
-1.8212002
-1.9102731
-0.52614529
-2.8442727
-1.5374429
-1.6125767
-1.9588484
-1.8217847
-1.3920585
-1.814827
-1.0561232
-1.2617816
-1.5857547
-1.8084369
-1.9582249
-1.535509
-1.5668142
-1.7698815
-1.7146111
-1.5231892
-1.7422061
-1.4365561
-1.870164
-1.3970869
-1.3249993
-1.4080692
-1.3801182
-1.8551082
-1.5569525
-1.2491207
-1.8372674
-1.8212633
-1.9624382
-1.689047
-1.5624176
-1.52699
-2.2728017
-1.474084
-0.99314709
-1.7360744
-1.6265867
-1.686592
-1.3266503
-1.4696893
-0.88656549
-1.5713024
-2.2292687
-0.96158321
-2.2789762
-1.2285911
-1.771496
-1.9699227
-1.6035083
-2.6021017
0.92824868
-1.9807421
-1.5088028
-1.6276211
-1.7477846
-2.241321
-1.6487298
-2.3726684
-1.8024577
-1.6189752
-0.90006013
-0.88858303
-1.2258376
-1.680054
-1.4077477
-1.6091729
-1.5499123
-2.6189277
-1.868693
-1.7841694
-1.4161687
-1.5000985
-1.5743206
-1.4109572
-1.9679804
-1.5575156
-1.3495947
-1.3781123
-1.2172224
-2.2143997
-1.4415613
-1.6536421
-1.5309211
-1.6531244
-1.8362098
-1.661728
-1.4401351
-1.8638752
-0.92245339
-1.9290798
-1.6335474
-2.0368908
-1.8397655
-1.8950064
-1.6741849
-1.8558437
-1.5335574
-1.312893
-1.3299968
-1.5663663
-1.2476883
-1.8376238
-1.3432548
-1.1858969
-2.3937853
0.20353279
-1.7714956
-1.7712038
-2.1803965
-1.5477917
-1.4862065
-1.9101303
-1.3615911
-2.774341
-1.5476245
1.3974395
-1.6520948
-1.5455105
-1.621898
-1.3019103
-1.6447772
-1.2123033
-1.4941779
-1.6478277
-1.8610009
-1.705459
-1.6790954
-1.230098
-1.5647783
-1.5833355
-1.5818551
-1.4538681
-1.7581711
-1.7356141
-1.9642801
-0.9534328
-1.4267435
-1.768256
-1.6459361
-1.5801189
-1.6398356
-1.5468776
-1.8767313
-1.8485707
-1.4644077
-0.75254155
-2.3526444
-1.5515784
-2.8737426
-1.649673
-1.5978532
-1.5961644
-1.8388128
-1.0309703
-1.5904416
-1.4873705
-1.5509582
-1.3328338
-1.6571786
-1.6549298
-1.6674831
0.47367431
-1.6251918
-1.4261284
-1.8514484
-1.7124104
-1.2777289
-1.8845645
-1.3778293
-1.5651382
-1.6105092
-1.2242453
-1.5508278
-1.7127578
-1.5791168
-1.9298324
-2.2377265
-1.4121494
-1.237734
-1.9970712
-1.4746968
-1.7628547
-1.8457236
-1.4224113
-1.3162154
-1.6085142
-1.8063463
-1.4591279
-2.1460028
-1.573856
-1.20658
-1.871143
-2.0708837
-1.4444608
-1.49571
-1.5723428
-1.6169423
-1.7827671
-1.7813807
-1.7914695
-1.483634
-1.5570444
-1.6400653
-1.6921712
-1.6849167
-1.1478816
-2.4869323
-1.6818939
-1.8324825
-1.9190635
-1.7141384
-1.7472472
-1.7687272
-1.7942353
-1.3179647
-1.7272422
-1.9046297
-1.9606728
-1.5991251
-1.5439225
-2.2881526
-1.4657111
-1.2672578
-1.6436548
-1.4538962
-2.3331248
-1.7371372
-2.1883514
-1.1963235
-1.6152268
-2.1000783
-2.2116129
-1.6279885
-2.1319356
-1.7398865
-1.1766592
-1.5584816
-1.227114
-1.6049137
-1.3802293
-1.2051254
-1.8519652
-2.1702874
-2.2343782
-1.3188119
-1.5433084
-1.4906086
-1.4403957
-1.794521
-2.2459523
-1.5704306
-1.7884457
-1.4873507
-1.7677429
-1.7799869
-1.5956318
-1.2987282
-1.4543765
-1.5773837
-1.8553309
-1.7056873
-2.0066846
-1.4595078
-1.6835739
-1.7298549
-1.3625647
-1.9103482
-1.40331
1.4713823
-2.1843755
-1.6991843
-1.8854589
-1.8322416
-1.5192232
-1.2145608
-1.6175813
-1.4595687
-1.8607376
-1.7018375
-1.8601724
-2.554275
-1.7964614
-0.95275683
-1.3546996
-1.804478
-1.9573927
-1.3373864
-1.2895367
-1.6771035
-1.7689551
-1.4507581
-2.4344942
-2.0729222
-1.6088458
-1.2973974
-1.4954684
-1.2940697
-1.7472464
-1.5015691
-2.1957917
-1.3678644
-3.2498762
-1.8729717
-0.30431878
-1.3774812
-1.5262784
-1.8341158
-1.7005978
-1.5107738
-1.8048059
-0.46932287
-1.7304583
-1.2779046
-1.5557169
-1.8092446
-1.6175609
-1.3374468
-2.3847227
-1.8927232
-1.9978129
-1.5545251
-2.3858995
-1.8377667
-1.7579853
-1.71861
-1.8120406
-0.59764369
-0.31237376
-1.2264168
-1.8231181
-1.9671278
-1.8306588
-0.30931701
-1.4821249
-1.7696558
-1.7322597
-1.5637933
-1.3117909
-1.0874756
-2.1440819
-1.4789947
-1.3558814
-0.13644272
-1.6521446
-1.7318495
-1.8448142
-1.392314
-1.7851798
-1.6483541
-1.7644726
-1.9041491
-1.568609
-1.6246081
-1.762581
-1.4344695
-1.8173857
-1.2698971
-1.2643569
0.43380762
-2.0153465
-1.6068143
-0.28794317
-1.720025
-1.4503566
-1.9368707
-1.7821172
-1.0701406
-1.3856647
-1.4752581
-2.0428522
-1.520893
-1.1236329
-1.3443008
-1.3531253
-2.9458988
-1.5613591
-2.0611656
-2.0004937
-1.4251979
-1.5064112
-1.5356231
-2.6933099
-1.5260219
-1.8208743
-1.4058032
-1.5732269
-1.3485077
-0.76237839
-1.8237827
-1.7019991
-1.0750695
-2.122033
-1.533073
-2.0020958
-1.0116992
-1.6346923
-0.88678359
-1.7293641
-2.1577356
-1.3523642
-2.3571222
-2.1592278
-1.7413185
-1.719448
-1.5382759
-1.0493918
-1.2013842
-1.1291498
-1.598641
-0.92723898
-1.4812745
-1.1651274
-1.8937588
-1.4365097
-1.2056513
-2.366701
-2.1257767
-1.5866635
-1.8422881
-1.5387324
-1.7103425
-1.6539171
-1.9253179
-1.7442025
-1.8182313
-0.82491624
-1.9347619
-2.6728348
-1.7340512
-2.3246611
-1.8343757
-1.5854747
-1.3167386
-1.2104972
-1.5102367
-1.5559344
-2.3553638
-1.8832555
-1.6199104
-1.4784741
-1.8347978
-1.1246799
-1.7066719
-1.4066896
-1.7986232
-1.8678427
-1.5572793
-2.0415368
0.50095977
-1.5628024
-1.7495671
-1.5543366
-1.8333433
-1.2832199
-0.81367684
-1.4212796
-2.5057157
-1.6306064
-1.7285071
-1.9925412
-1.876121
-1.6570115
-2.3602288
-1.0855697
-1.4120706
-1.5694088
-1.4618045
-0.98112001
-1.4854527
-1.4807449
-2.0372878
-1.7877957
-1.7859788
-0.22684302
-1.4877488
-1.1835889
-2.2224786
-1.5362908
-1.8785363
-2.3301046
-1.891389
-1.3646356
-1.6106557
-2.7312487
-1.7987587
-2.8378289
-1.4180866
-1.661889
-2.305184
-1.8421807
-1.7666852
-1.8823093
-1.8764433
-2.1444894
-1.6167926
-1.3787646
-1.1098418
-1.8741745
-1.0825788
-1.7364652
-1.7273906
-1.4133885
-0.44008002
-1.6843713
-1.2104003
-1.6717008
-1.6275561
-1.9704689
-1.9336952
-1.317282
-2.0531015
-2.2023526
-1.172963
-1.6793623
-1.6553273
-1.8434062
-1.7209983
-2.6574522
-1.8755071
-1.6873507
-1.4558899
-0.22227464
-1.7052443
-1.8650853
-1.6498555
-1.7087588
-1.814941
-1.4710004
-1.6405734
-1.7960966
-1.5220362
-1.8670412
-1.4336637
-0.70455845
-1.7698443
-2.1208347
-1.6581799
-1.8773309
-1.2454201
-1.7876926
-1.8005212
-1.4569887
-1.7230944
-1.2246588
-1.609803
-1.9520785
-1.5778946
-1.8780511
-1.8235115
-1.6096588
-1.8680128
-2.1514126
-2.2089686
-1.851589
-1.6175895
-1.8799504
-2.1218185
-2.1802112
-1.4532772
-1.6387297
-1.1278503
-0.94047465
-2.2891756
-1.5434295
-1.7517458
-1.8835367
-1.3198356
-1.6242573
-1.2035666
-1.4449604
-1.2240051
-2.088321
-1.737655
-1.5343774
-1.5226073
-1.6367491
-1.8674247
-2.4113025
-1.5560551
-1.3138552
-1.4278014
-1.5282928
-1.5209439
-1.5160556
-3.3166166
-2.5217465
-1.4875547
-2.2980408
-0.87500787
-1.5349402
-1.2609485
-1.3829659
-1.6391057
-1.3812361
-1.782848
-1.5047526
-1.8513643
-1.6294503
-1.4132133
-1.554204
-1.814355
-1.4527389
-3.0626633
-1.7341827
-2.4136085
-1.6030193
-1.7186052
-1.2134261
-1.4425703
-1.6304246
-2.3976846
-1.314724
-2.5854602
-1.8467202
-1.0236323
-2.1147357
-1.5254501
-1.6602738
-2.5617649
-1.5721956
-2.4793503
-1.1402528
-1.2238804
-0.73343027
-1.5263208
-1.8236302
-1.650107
-1.6408871
-1.822197
-1.9529793
-2.168595
-0.50195287
-1.6800159
-1.0790578
-1.6364055
-1.2718087
-1.6504085
0.11454401
-1.4005944
-1.3691705
-2.0383809
-1.8558788
-1.9297298
-2.3941743
-2.2532991
-1.9848266
-2.6002113
-2.1850765
-2.1529836
-1.9863217
-1.7508
-1.5916733
-2.1065378
-1.9784043
-2.0022277
-2.1186752
-2.2099183
-2.1033575
-1.98702
-2.0166518
-1.6585082
-2.1962389
-1.9080393
-2.2136773
-2.0781245
-1.2829931
-2.2006027
-2.4345235
-1.9989196
-2.1617156
-1.9240851
-0.12059534
-2.0924646
-2.6913646
-1.3275584
0.16646176
-4.3112877
-2.3391273
-1.4828577
-2.1774605
-2.503675
-2.6623403
-2.5410622
-2.4651175
-2.076225
-2.3484528
-2.5309068
-2.7037821
-2.3383575
-2.2262694
-2.4149632
-2.6217979
-2.6366757
-2.4215981
-2.1682853
-2.216686
-2.2437398
-3.1969199
-0.69993336
0.13417497
-2.2562855
-1.9837009
-2.6069654
-2.0033083
-2.3852735
-2.3817733
-2.2555289
-0.98193071
-2.1677073
-2.2676357
-2.5505032
-1.4650015
-1.2907844
-2.5399986
-1.9904638
-1.9093594
-1.8650784
-2.7266893
-2.1029054
-2.805962
-2.4894645
-0.80157453
1.0885557
-0.88764663
-2.6658941
-0.73664107
-2.3529583
-0.96183695
0.08438627
-0.46783809
-1.8762809
-1.8521472
-2.249997
-2.816501
-2.5735646
-1.5446395
-2.231886
-1.5634744
-1.8378743
-1.4915799
-2.3153289
0.15688573
-1.9649782
-1.9941492
-2.1351252
-3.5937703
-2.2593669
-2.7856003
-2.8391392
-0.87618448
-2.7158842
-1.7747147
-1.5788756
-1.5396758
-2.415042
-1.6203746
-2.6852882
-3.152581
-3.0346886
-2.6762921
-2.2033146
-1.2498107
-2.2942146
-3.4741657
0.28794444
-3.2283968
-1.8039327
-3.0177807
-2.3604504
-2.5455137
-1.6719455
-2.5878411
-2.7726704
-2.7261627
-2.9050326
-2.6542683
-2.968715
-3.3542693
-2.596795
-2.0474721
-2.399656
-3.0369039
-2.6758703
-2.6195735
-2.5751778
-1.9526873
-2.1650435
-2.3585227
-2.7116485
-2.494289
-1.6700865
-2.0124707
-0.84496799
-2.6148696
-1.266302
-1.7208866
-1.9680683
-0.71278943
-2.0694397
-1.9044791
-2.2550745
-2.1453852
-1.9846813
-2.2223118
-1.8410629
-1.9625869
-2.0692316
-0.38803627
-2.4252807
-1.8463485
-2.168235
-0.8278197
-2.2180692
-2.1951653
-1.7860722
-1.3956752
-2.4335106
-1.2786542
-1.9757202
-1.3505252
-2.1192875
-1.9381729
-1.6858744
-1.3099383
-1.9697405
-1.7327413
-3.3001235
-0.90524503
0.40266744
-2.1825664
-2.2440636
-2.1399496
-2.3671037
-1.8976933
-2.2101529
-2.2457014
-1.7014686
-1.4188121
-2.8979367
-2.2656392
-2.7585439
-1.5477352
-1.9859949
-1.2550305
0.89318509
-1.5823804
-2.4445319
-2.0493375
-2.3921565
-2.4302133
-1.8297931
-2.2150468
-2.5267546
-2.3305837
-1.5494886
-2.7275917
-2.3801489
-2.196037
-1.6028003
-1.678918
-2.7567629
-2.341213
-2.61151
-2.847766
-2.9660224
-2.4007859
-2.6781447
-2.575864
-1.4934579
-3.5737417
-1.5197325
-2.5823245
-2.7427915
-1.918882
-1.7957421
-2.6055493
-2.5599966
-1.6646736
-2.2043396
-2.3977148
-2.4996056
-2.0821306
-1.9552908
-2.0216643
-2.4923208
-3.2656583
-2.5726878
-1.891727
-3.2853239
-2.011058
-2.080448
-3.3427979
-1.3153134
-2.0589571
-1.60098
-1.7097886
-1.0025228
-2.0212339
-2.0249779
-1.9940773
-2.501215
-2.2076015
-2.0915366
-0.9285766
-0.88810368
0.24447406
-2.3739605
-2.5960404
-2.4238906
-2.6736868
-1.4179932
-2.3365342
-1.1270188
-1.6280021
-2.1634062
-2.725356
-2.735033
-3.1797361
-1.8039228
-2.5162735
-2.9047897
-2.3882928
-1.8872435
-1.0046299
-2.3686151
-3.068716
-1.5302756
-3.4912612
-2.302536
-2.9000477
-2.5398816
-2.7312456
-3.0491863
-1.267088
-2.5183648
-3.2839081
-2.3478479
-2.5983399
-2.6548772
-0.92623655
-0.65174969
-3.5009279
1.1535917
-0.16115283
-2.7263196
-0.006757204
-2.1014053
-2.8510682
-1.7224923
-3.117595
-2.5962461
-2.3392138
-2.5333699
-1.3130947
-2.5424431
-2.1658442
-2.4372483
-2.4537161
-2.718984
-2.0545519
-2.342963
-2.7180227
-2.685978
-1.5203484
-1.3860588
-2.4077939
-2.5950509
-2.1254856
-2.8372396
-1.9327361
-2.4310426
-2.3276244
-2.1967482
-2.2254727
-2.639035
-2.5395098
-2.5122235
-2.1383419
-2.4479511
-2.5779406
-1.8079815
-2.8127605
-1.8100298
-2.3936975
-1.6530935
-0.52526625
-2.6944144
-1.6001216
-2.2275362
-2.39203
-1.6317794
-2.4612711
-2.4022347
-2.7821959
-1.5405861
-2.4540217
-2.5182184
-1.7904538
-2.5445836
-2.3452958
-2.3366655
-2.6975891
-2.2588436
-1.3943239
-2.5989651
-2.2880024
-1.5840495
-1.2818193
-2.2714466
-1.8809598
-2.5540185
-1.0775554
-2.23156
-2.7577751
-2.5808561
-1.8908559
-1.1782075
-1.8707954
-2.547553
-2.188613
-2.3039933
-2.3978524
-2.3674841
-2.5184934
-2.6161208
-2.2534111
-2.3671455
-2.6062842
-1.8444787
-2.1614669
-2.4846261
-2.4394391
-1.0019918
-2.9329235
-2.5473056
-1.7818585
-2.3096631
-1.7349954
-2.287696
-2.5961859
-2.0018469
-2.4108387
-1.8078174
-2.7597561
-2.7504642
-1.0692562
-0.041009909
-2.8334492
-2.2670487
-2.5176107
-2.1579203
-2.3777773
-1.4512951
0.11564414
-2.4123862
-2.7336311
-2.7085123
-2.0594187
-2.2305365
-0.86898903
-1.9932479
-1.9687324
-3.9063668
-2.6173072
-2.7781874
-2.6177499
-2.5164095
-1.5274283
-2.5674106
-1.5683186
-2.8963532
-2.7863443
-2.5272732
-1.7705776
-0.99584019
-2.1159127
-2.6003724
-2.6015588
-2.5590639
-2.4859831
-2.7846633
-2.1395601
-2.5976704
-2.471838
-2.623246
-0.65374539
-1.4245729
-2.3768287
-2.4848335
-1.4264471
-2.1991438
-2.4042027
-2.0801236
-2.4558832
-2.413553
-2.0784009
-2.5829647
-1.0507861
-2.9892014
-3.0480124
-2.0525387
-1.9582548
-2.7823127
-2.1107388
-2.3669861
-2.0826062
-1.4090331
-1.211361
-2.7764063
-1.4995801
-1.7748841
-2.6126005
-2.4884442
-2.4446949
-2.8831473
-1.7100535
-2.0360172
-1.8482748
-2.941523
-2.9196052
-2.1182288
-2.0560323
-2.4700491
-1.9232921
-1.8596961
-1.9947061
-1.9472228
-1.8356386
-1.9471827
-2.4415025
-2.2133585
-2.6208734
-2.0345022
-2.2811406
-2.0623189
-1.8503458
-2.0888522
-2.0801362
-2.0635275
-2.0714505
-2.0987353
-2.3111876
-2.0299334
-2.1877146
-2.1664045
-1.759442
-2.6607567
-1.8551764
-1.8266563
-2.0252822
-1.5336031
-2.166557
-1.9285485
-1.9945874
-2.3091352
-2.7321022
-1.8920404
-2.1012966
-1.7766986
-2.0954519
-2.4993827
-2.0459588
-2.1236683
-2.3538774
-1.9123954
-0.98950986
-2.0617534
-2.0511629
-2.0728149
-2.3738768
0.55966578
-2.1159485
-2.5061456
-2.6245688
-1.8972698
-1.7755158
-2.0970929
-2.0997455
-1.9377805
-1.986998
-1.8066513
-2.0655803
-2.1958901
-2.3737415
-2.7273625
-0.46986461
-0.9554368
0.25508695
-1.6774596
-2.7868352
-2.5160673
-2.3776276
-2.7237972
-2.3593606
-2.1245737
-2.8168453
-2.4660697
-2.5737046
-2.3681105
-2.0063522
-2.8257634
-1.9768834
-2.5746291
-2.5980144
-2.6479847
-2.6018021
-2.2860113
-2.8041417
-2.2589235
-2.971202
-2.1032964
-2.4287191
-1.5801026
-2.6939853
-2.6910731
-2.4516807
-1.6366067
-2.5534843
-2.1020603
-2.4859237
-2.6218964
-2.4524087
-1.7621241
-1.8578413
-2.1336245
-2.4471185
-2.231779
-2.051791
-2.4522595
-2.2273968
-2.4489125
-2.3486827
-2.3277565
-1.7357227
-2.6877896
-1.8325988
-1.9793955
-1.7957413
-2.2335888
-1.5487826
-1.9100172
-2.263391
-1.2006472
-3.17874
-2.523582
-2.2003809
-2.1221541
-1.842814
-2.0640145
-2.1234417
-1.9316427
-1.8600131
-2.3402855
-2.379131
-2.0372715
-2.5490985
-2.0964197
-1.8144493
-2.8665219
-3.1260345
-1.6637274
-1.0516216
-2.0752609
1.3532669
0.2210023
-2.9282177
-2.1231088
-1.5805201
-2.2911906
-2.3316061
-2.9340576
-2.5599553
-1.2273589
-2.2663259
-2.3495411
-2.3215865
-2.7631614
-2.458039
-1.7736832
-0.9215463
-1.2388493
-1.7708193
-2.6600088
-2.5397086
-2.142199
-2.4313107
-1.314274
-2.8024914
-2.2523126
-2.7455302
-2.5825612
-1.4509148
-2.7818334
-2.2664639
-2.7196719
-2.310897
-2.6518842
-2.4097465
-2.4353041
-2.6968279
-1.8140424
-1.8178477
-1.9452786
-2.5228404
-2.474815
-2.4634774
-2.4486293
-2.2660642
-2.774385
-2.489152
-2.6167438
-1.226194
-2.9611493
-2.8463236
-2.7651606
-2.7829152
-2.229491
-1.6670252
-2.9183327
-3.1886902
-3.2009677
-2.3941879
-2.904226
-1.4067582
-2.6491225
-2.5556788
-3.13679
-2.791719
-2.9617928
-2.0009534
-2.9590477
-1.968946
-0.78381309
-1.1191198
-1.1208721
-0.53988091
1.718272
-1.5435029
-1.9182159
-0.5028405
-0.43099018
-2.4450369
-1.8109124
-2.3621746
-2.0380363
-0.9139881
-2.1808668
-1.8701806
-2.447899
-2.3446271
-2.4794834
-2.7497729
-1.9360795
-2.3854598
-1.7507911
-0.44710767
-2.5831534
-1.132356
-0.78351501
-0.25560987
0.47119102
0.93371558
0.51695653
-2.6613942
-0.49001608
0.19901853
1.804251
-0.7100384
0.66244615
-0.63799524
-2.1358729
-1.1312158
-1.7049362
-2.1670813
-1.4270719
-3.530338
-1.9897312
-2.4938315
-1.0186031
-3.0619748
0.53811708
-1.1894128
-2.0908638
-2.6736713
-2.3192973
-2.6594914
-2.6199486
-1.9429439
-1.1724677
-2.1571116
-3.0158909
-1.2447052
-2.9097555
-2.161997
-2.1656993
-1.7604309
-1.8389329
-2.3947882
-2.8822896
-2.6981212
-2.8966446
-2.3106778
-1.4375801
-2.618212
-2.2232945
-2.388766
-2.3351017
-3.4645651
0.40487528
-2.9196725
-1.2748808
-2.5860778
-2.4914007
-1.163219
-2.0692376
-1.6276639
-2.0239439
1.091471
-2.4020695
-1.8465912
-2.9908502
-2.7821944
-2.592076
-2.3109166
-2.8354166
-1.2337192
-0.085875111
-0.8974528
-0.10722304
-0.11527179
-0.87451519
-1.8212894
-1.1159725
-3.2167901
1.2294296
-0.66140982
-2.2195744
0.48724588
-2.9768797
-2.8997451
-2.2484445
-1.3163089
-1.7681215
-1.9236168
-3.1675977
-2.6093034
-2.6876634
-2.5586233
-2.7786511
-2.6142592
-1.2505405
-1.5127013
-2.6252748
-3.2098627
-1.9228269
-2.499227
-2.1694907
-2.0168705
-2.2268437
-2.3625555
-2.4283732
-2.5763881
-1.9509632
-1.0200503
-2.1020473
-1.3879453
-2.2119819
-2.0480608
-3.3874208
-2.0208071
-2.0320189
-1.7029266
-2.6437213
-1.8407685
-1.9292897
-1.8274786
-1.5927956
-1.8326622
-2.0524962
-1.827558
-1.928919
-2.46763
-1.8937802
-2.4862896
-1.9036214
-2.5763879
-1.8800003
-3.5532567
0.37717363
-1.338121
-3.7180343
-2.0906849
-2.2800793
-3.2521403
-2.200101
-2.2446702
-1.9035324
-2.4729258
-1.1848108
-2.3444616
-1.7591603
-1.1133812
-2.2932586
-2.4812336
-1.8424228
-2.360859
-2.2962525
-2.4302108
-2.5911456
-2.6454337
-2.2771879
-2.1713305
-2.0319629
-2.4983354
-2.7588926
-2.5824739
-2.179858
-1.7003911
-1.4916352
-2.4724926
-1.7486776
-3.0708633
-1.9553504
-1.3708189
-2.5474747
-2.5145972
-2.5414872
-2.5183365
-2.5792223
-3.0716616
-2.7927048
-2.9143364
-2.7167616
-2.3854024
-2.5357684
-2.6789611
-2.8177024
-2.7923925
-2.9206691
-0.9874679
-2.7297793
-2.4139205
-2.6731415
-2.2518745
-1.7742681
-2.8043583
-2.6792525
-2.3203991
-1.5319989
-2.4115894
-0.65327399
-2.1958399
-2.4526415
-2.1504525
-2.7331932
-2.694249
-2.3965912
-2.8190724
-2.8708868
-1.0658427
-2.6315955
-2.6893387
-3.2367366
-2.1781721
-0.96959187
-2.2467991
-2.7051634
-2.5753285
-2.4606422
-2.7666869
-2.3437734
-2.6806991
-2.9847588
-0.61839378
-1.2189887
-0.39346086
-2.1519193
-2.3136996
-2.6657599
-1.7830619
-2.6651852
-2.7020471
-2.3533654
-2.8040345
-2.6159055
-2.0863076
-2.922058
-0.95617259
-3.0529414
-2.9913656
-2.7121255
-2.5900491
-3.1969233
-2.3752661
-2.0318436
-1.593409
-2.9458916
-1.7899912
-1.6872212
-2.5888292
-2.75752
-2.3607769
-2.4821484
-2.6935375
-2.2715926
-2.5191958
-3.0809064
-2.0498954
-2.6594332
-2.7907865
-1.4270255
-0.97737178
-2.8984852
-2.5918597
-2.6110388
0.8126115
-2.8244311
-2.8480585
-2.3043746
-2.8670113
-3.0372141
-2.7349282
-2.1670537
-2.5569652
-3.2190901
-0.65376205
-2.8497281
-1.0099435
-2.6761681
-2.3916614
-2.5000999
-2.7224419
-2.5863254
-2.4804921
-2.6882985
-2.627091
-2.5116014
-2.8724898
-1.3534445
-1.7013381
-2.0872802
-1.3753983
-2.0439339
-2.9139942
-2.8093715
-1.8338064
-1.6780545
-2.478532
-1.9405637
-3.0022731
-2.8411514
-2.2387882
-2.4349035
0.010203215
-2.1404975
-2.1322429
-2.2439781
-1.5370588
-1.7146297
-1.9918431
-2.1186125
-1.3374504
-2.6602129
-2.5933356
-2.2033536
-2.509566
-1.8115745
-1.3164582
-2.635669
-1.7502084
-2.6892212
-2.58566
-2.9554592
-2.238188
-1.7120945
-1.9772933
-0.5676831
-2.879873
-1.9654591
-2.5966669
-2.3136757
-2.0800342
-2.5124595
-1.1976712
-1.8080844
-0.73910627
-2.8457472
-2.3745267
-2.7067031
-0.9983808
-1.4236904
-2.2711209
-2.2832414
-2.5081555
-2.2241384
-2.205613
-2.56246
-1.865114
-2.1774598
-2.564265
-0.28723939
-2.5302156
-2.5976995
-2.7926691
-1.9284497
-2.4742436
-2.3501732
-2.6019345
-2.0245769
-2.4640981
-0.50868319
-1.7173834
-1.6121933
-1.6306935
-2.0275533
-2.2026902
-1.8746505
-1.9136905
-2.2477324
-2.0522567
-2.2936527
-2.0356515
-1.4974276
-2.4653206
-1.7985562
-1.5176446
-2.074443
-2.4969181
-1.4573288
-2.3497995
-1.8708226
-0.37232284
-1.5454751
-2.0113178
-1.8042863
-2.1545701
-1.9712954
-1.9757282
-2.1374189
-2.0635462
-2.2933035
-2.2467435
-1.8497504
-2.0427137
-1.8081812
-2.1098272
-1.7483839
-1.5509401
-3.2596461
-1.8907012
-2.1560084
-2.0360748
-3.1929614
-2.0735947
-2.2254875
-1.5969823
-1.7953041
-1.899781
-1.0113886
-2.8903601
-1.9859312
-2.8045676
-2.4497407
-2.7519868
-0.73628514
-1.6444642
-1.0472339
-1.6958276
-2.2031065
-2.1565481
-2.9660073
-2.0959024
-2.9506539
-2.6956522
-0.78712694
-2.7729375
-2.2978407
-2.8384899
-1.4719768
-2.814472
-3.0874798
-2.9332942
-2.0055341
-1.534222
-3.2589246
-2.6941792
-2.3986315
-2.9036698
-3.1720967
-2.8510258
-3.2954074
-2.0246996
-2.8787285
-3.3611196
-1.286774
-0.73016047
-2.078181
-0.70216977
-2.2108948
-2.6348979
-2.7077743
-2.675073
-2.8097911
-1.4904021
-2.8852305
-1.9652641
-2.5862446
-0.86108678
-2.3228823
-2.0883287
-2.0129345
-3.3854443
-3.0252241
-2.9072712
-1.1093003
-0.22001836
-2.7520693
-3.1050006
-2.6721973
-2.2916867
-0.71745342
-3.2651426
-2.3826124
-3.0053897
-2.367478
-2.813487
-2.807051
-2.600298
-2.7780588
-3.2671706
-3.2358109
-2.1966312
-3.0135039
-2.9403479
-1.9815824
-3.2640454
-3.0345753
-3.3562149
-2.5108158
-1.5199678
-3.1656783
-2.5503587
-2.4903499
-3.0487647
-2.9334167
-2.9755774
-1.577533
-2.2775552
-2.5068911
-2.8211396
-1.4813263
-2.5892872
-3.0957136
-3.3670233
-3.0455185
-2.6071786
-2.6196553
-3.0322923
-2.5544019
-2.8128673
-2.7225864
-2.6324882
-2.3327122
-1.3088602
-2.4201921
-3.2327982
-2.5443987
-2.6635829
-1.2700193
-2.3597462
-0.68210257
-1.5348076
-3.2095759
-2.5584255
-2.4714357
-2.8279508
-2.2872246
-2.3110558
-1.5657088
-3.2053052
-3.0560936
-1.6860928
-2.8812981
-3.3619559
-2.8156778
-3.2454424
-2.4023745
-2.6420057
-2.7683017
-3.5558554
-1.8895142
-1.5422138
-1.7416984
-2.3623262
-2.4607511
-2.0303427
-1.0689685
-1.3978049
-2.3633066
-2.2522134
-1.7882578
-1.9835834
-2.3688353
-2.6880552
-1.4930856
-2.5862593
-1.6517048
-2.44901
-1.4310433
-1.8712925
-2.3232653
-1.7808381
-2.0778564
-1.522017
-1.4264823
-2.3811752
-0.82761128
-2.7564703
-2.5749064
-2.1622919
-2.5566142
-2.3898468
-2.4164301
-2.34963
-1.7891605
-1.9516024
-2.305556
-1.8157305
-2.5337665
-2.5266041
-1.9015336
-2.2685116
-2.0059243
-2.2876269
-1.717345
-2.0826958
-2.3715618
-2.0487133
-1.9119069
-2.668242
-2.75999
-1.1671836
-3.0172536
-2.3483302
-1.5800738
-2.6245096
-2.5511187
-1.8773125
-2.3673922
-1.9934014
-3.060629
-2.4372855
-2.5042377
-0.81928732
-2.4931538
-2.8760045
-3.1435414
-2.3336137
-2.6673632
-2.4318022
-2.7691652
-2.3190207
-1.5893152
-2.2401008
-2.1743688
-2.6543724
-2.2085287
-2.4816872
-2.1830337
-2.8101287
-2.1515147
-2.8889491
-2.2748146
-1.9887519
-2.5573804
-2.5445895
-1.8800795
-2.4810044
-2.6283547
-1.4745119
-1.2141907
-1.5525302
-2.0325785
-2.3882861
-2.4447781
-2.8902379
-2.1598588
-2.3606657
-2.3821555
-1.9845244
-2.1449968
-1.4172213
-2.5299954
-2.4243942
-2.6322757
-2.5995589
-1.9760476
-1.9038684
-2.4435281
-1.0986219
-1.8447755
-2.1147744
-1.7606238
-1.8998652
-2.5575069
-1.8101887
-0.1083747
-2.4487069
-2.6007356
-2.4889192
-2.3804793
-1.2365983
-2.7692188
-2.3926985
-2.2908493
-2.4261742
-2.2543762
-1.4280602
-1.5368054
-2.550609
-2.4693413
-1.3993671
-1.8321195
-1.5659729
-1.9391413
-2.2887657
-1.7403114
-1.7110378
-2.0602532
-1.6221891
-1.7669283
-2.1980376
-1.6440528
-2.1270897
-2.2891087
-2.2695879
-2.3296713
-1.4946864
-2.3492117
-1.200546
-0.93678577
-1.9316195
-1.2606268
-2.5017794
-1.8559583
-1.2827861
-1.0875383
-1.6717601
-1.2677656
-1.4274432
-1.004031
-1.8006358
-0.95160202
-1.8028827
-0.23987283
-1.0831511
-1.4736328
-1.5017771
-1.5857554
-0.89012195
-1.4778926
-0.8079821
-0.99840774
-0.87678696
-1.0499679
-1.5515299
-1.5078578
-1.4140983
-1.7296104
-1.6638486
-1.3975226
-1.3773213
-1.5833826
-1.3370149
-1.7757643
-0.97465992
-1.5662423
-1.4657096
-1.8354692
-1.566961
-1.5992592
-1.2589487
-1.8215978
-1.5062196
-0.98806588
-2.175061
-0.62010487
-1.6046318
-1.558545
-1.7105269
-1.7671852
-0.92544338
-1.5041067
0.13193422
-0.3477205
-1.7385864
-1.777217
-0.85973099
-1.3467705
-2.1151156
-0.94502092
-1.6804875
-1.8671051
-1.8507219
-1.0985817
-2.1128068
-1.8409306
-2.1235952
-1.6346256
-1.3275278
-2.0547652
-1.1301368
-1.1372864
-1.6403133
-1.78096
-1.0999849
-1.5343357
-0.92173599
-1.2653102
-1.7697789
-0.87248938
-3.4692079
-1.4519588
-1.4714567
-1.0260761
-1.3161687
-0.78667049
-1.5620282
-2.1230114
-0.85875449
-2.0889532
-1.708796
-1.6256436
-1.6067299
-1.4181328
-1.5013796
-0.89834204
-1.8008928
-1.9375625
-1.5195511
-1.7318477
-2.0023222
-2.0324303
-1.6459755
-1.3919652
-1.4391889
-1.221146
-1.9994036
-2.0299904
-1.2276723
-1.8605596
-1.4545004
-1.4413896
-1.5543714
-0.95085377
-1.3700303
-1.4598921
-1.4114459
-2.1829318
-0.95352605
-1.0211899
-1.4773743
-1.4824412
-0.46524744
-0.25910243
-0.90112219
-1.6971523
-1.3176384
-1.9461409
-0.9258109
-0.3827623
-1.9194431
-0.88991105
-1.2819865
-1.405403
-1.5867847
-1.0127773
-1.6146724
-0.81651067
-2.0200858
-1.5785657
-0.94342221
-1.5840402
-0.64965586
-1.6318003
-1.7793794
-1.4400151
-1.7492263
-1.7643683
-1.5335616
-1.2762308
-0.9972424
-1.319638
-0.4608519
-1.4341227
-1.7750122
-1.644302
-1.7687563
-1.2251362
-1.4829777
-0.64476125
-1.6478252
-1.3301675
-1.9183737
-1.3431808
-1.7957784
-2.3408724
-2.4692345
-1.9974961
-2.8771066
-2.4331893
-2.1953877
-2.3171572
-2.1816448
-1.3533888
-2.3106772
-1.8463334
-2.1209502
-1.6412486
-2.0371922
-2.3081053
-2.2903023
-2.117309
-1.9116596
-2.3399284
-2.337611
-1.7705614
-2.5961764
-2.5172576
-0.14401725
-0.1814299
-0.13185362
-2.2402041
-2.2740607
-1.8878199
-2.262273
-2.3399216
-1.8449947
-2.1272663
-2.736832
-2.2647133
-2.3970367
-2.2179414
-2.3298997
-1.4874588
-2.214099
-1.805326
-2.1637155
-2.4873626
-1.7292548
-2.465501
-1.1961866
-1.2412923
-0.11691391
-1.5377656
-2.6385873
-1.4432616
-2.0887206
-1.9702487
-2.1447373
-1.5862814
-1.4402986
-2.484202
-1.7464455
-2.4016273
-1.7577751
-2.0596992
-2.6507501
-2.4441835
-2.0327524
-1.6278526
-2.534276
-2.3582124
-2.2500849
-1.9526328
-2.5623451
-1.5566845
-2.3491197
-1.7327803
-1.0650305
-2.0979917
-2.4178726
-0.57121402
-1.8521706
-2.2410309
-1.6840115
-1.4975079
-2.3375965
-0.88651348
-2.3140824
-2.2043792
-2.3390109
-1.992618
-0.65514631
-1.2769705
-1.6017885
-1.7743926
-1.5712072
-1.3106565
-1.1292329
-1.1442207
-1.7244056
-1.1183686
-1.5266395
-1.5981144
-1.811079
-1.5091561
-1.3306434
-1.2761874
-1.5277327
-1.3119545
-1.302578
-0.98151435
-1.7790566
-1.2195345
-1.479917
-1.6754041
-1.4310725
-1.8115535
-1.0462726
-1.6209882
-1.7359802
-1.1477718
-1.2699712
-0.91992551
-2.0313873
-1.3934617
-1.9455469
-1.4321494
-0.65032393
-1.3648323
-1.6246577
-1.7982993
-1.2886798
-1.6205647
-1.0694954
-1.741688
-1.9002057
-1.8871222
-1.7284096
-0.79778333
-0.43580934
-1.9808702
-1.1155252
-1.4033836
-2.174273
-2.2675982
-1.7125364
1.5867271
-1.9177899
-0.16099475
-0.21536252
-0.27628261
-0.75290027
-2.4848646
-1.2409191
-2.6052845
-2.6205927
-2.1763847
-2.3698444
-1.5892773
-1.8279059
-1.7732693
-2.0484182
-2.1445642
-1.9817514
-1.6680266
-2.2094335
-2.2010306
-1.4888123
-2.306821
-2.1009502
-1.8213081
-1.2071495
-2.089085
-1.901043
-1.6945181
-1.8213324
-1.7296477
-2.1938302
-2.3682321
-1.992386
-1.0828607
-1.8848458
-2.1106121
-1.7433844
-1.9374314
-1.902754
-1.8912959
-2.1270766
-2.0607425
-1.8457792
-1.7211343
-1.6932867
-2.1604937
-0.20903258
-1.615228
0.28134114
-1.6357965
-1.8283373
-2.1467198
-3.3202493
-1.8864495
-1.7500632
-0.89323345
-1.8621336
-3.1711682
-1.7772114
-3.3491157
-1.963185
-3.1934555
-1.2171569
-2.9460976
-2.1060951
-2.7853039
-2.7672074
-2.0493681
-3.321318
-3.2235642
-3.1355874
-2.0340498
-2.6013098
-2.2545601
-3.0646258
-1.8887517
-2.3880022
-2.8254266
-2.4882784
-2.4703215
-2.4618412
-1.8172102
-1.7517813
-1.8643685
-2.2590239
-2.5063562
-2.9306004
-2.1752533
-3.1218005
-3.4417911
-3.3812704
-1.8509676
-2.3905944
-2.5166644
-3.5339791
-1.5432734
-3.2562806
-1.9557464
-2.6692056
-2.082754
-2.855364
-2.2593905
-2.2634494
-2.831459
-1.8996326
-2.6048586
-3.0491016
-1.1822074
-4.0447046
-1.1969208
-2.1081462
-2.9802224
-1.4166228
-3.1015407
-2.229848
-2.2030153
-2.8788846
-1.5724182
-1.8505812
-2.3556793
-1.8145751
-4.0393949
-1.7855095
-2.0406591
-2.2675002
-1.8002055
-1.8598935
-1.9437468
-3.724429
-2.1793761
-1.5116432
-2.0334356
-2.2563603
-3.3423687
-1.6952708
-3.1250223
-2.1169947
-3.2084073
-2.0986021
-3.4525861
-2.5059295
-2.6881194
-1.9920533
-1.7170934
-1.7350545
-1.5806617
-0.34913039
-1.3916541
-3.1322975
-1.8421866
-3.3281475
-2.4605008
-2.1688324
-2.0121168
-1.9317731
-2.7618814
-1.5695228
-2.6648159
-1.5932704
-0.93565536
-2.6952695
-2.0440924
