-0.47749208
0.042321173
-0.39422869
-0.96562916
-0.75319899
-0.2869283
-0.4905204
-0.66921633
-0.50078809
-1.085957
-0.1303995
-0.29907967
-0.56500449
-0.38103834
-0.89928768
-0.56676936
-1.4197418
-1.1702225
-0.65717801
-1.5279736
-0.83059008
-1.0200895
-0.75266185
-0.92235086
-0.54127413
-1.6057499
-0.90185366
-1.678492
-0.096762767
-0.83788186
-0.23167341
-0.01579098
-0.39008677
-1.4958077
-0.55259014
-0.50738745
-1.4943844
-1.4183316
-0.2625284
-1.1081356
-0.6666069
-0.88886891
-1.1547278
-0.10655202
-0.63867048
-1.3760427
-0.63972882
-0.09854237
-0.54344387
-0.84165015
-0.24952792
-0.57765739
-0.4140779
-1.3961483
-0.83856508
-1.0347445
-0.24559761
-0.89725806
-0.0680392
-0.78307233
-1.1534676
-0.1417814
-0.1142586
-0.25629486
-0.23380033
-0.86322252
-0.24529291
-0.74329012
-0.86612765
-0.20868505
-1.1897909
-0.32253011
-1.1796642
-1.0859445
-0.49425221
-0.88625662
-0.741991
0.27989823
-0.47700587
0.086026962
-1.1999633
-0.84441413
-1.0627334
-1.4222693
-0.57537268
-1.6083989
-0.64805729
-0.5880102
-0.92897838
-1.0114594
-0.269918
-1.1918941
0.099791296
-0.82446943
-0.83166324
-0.76686214
-0.56655198
-1.0479796
-1.0687383
0.017265647
-0.13960185
-0.13371095
-1.0496638
0.018995068
-0.28425734
-0.47451191
0.27756771
-0.49621946
-0.09903145
-0.79235515
-0.99122681
0.05274507
-0.37220185
-0.88340091
-0.52272862
-0.27022787
-0.92838296
-1.6659651
-0.34954223
-0.64577588
-0.36297391
-1.793887
-0.87662751
-0.19422422
-1.3782748
-0.39226517
-0.62508747
0.099560843
-0.92380684
-1.0739864
-0.87202131
-1.0688252
-1.0565331
-0.19836652
-0.41995909
-0.44669584
-1.433718
-0.33092201
0.76121636
-0.8487193
-0.28513641
-0.32795704
-2.0278217
-0.44908684
-1.1991627
0.40347626
-1.0627052
-0.73016764
-1.1312341
-0.97801925
-1.357239
-0.2581265
-0.4568222
-0.15218515
-0.010193965
-0.84296984
-0.85816972
-0.002891798
-0.75388159
-0.2477163
-0.77390665
-1.0290746
-0.35489636
-1.2368395
-1.1449661
-0.474824
-0.35602457
-0.72306505
-0.32709774
-0.84336657
-0.37698842
-0.62002223
-0.78982377
-1.0393821
-0.46030277
-0.40125449
-1.1157773
-0.17571691
-0.35090463
-0.5325769
-0.58568095
1.4025853
-1.48657
-0.44572588
-1.0111041
-0.47118645
-0.28536919
-1.1919904
-1.1366059
-0.95424698
-1.0585266
0.44412364
-0.60896621
-0.44279513
-0.751826
-0.27975823
-0.49107532
-0.46968382
-1.1759034
-0.62124458
-0.40053584
-1.3363425
-0.52816038
-0.79144619
-0.59276921
0.25572384
-0.14915987
-0.22154877
-1.5263499
-0.45903618
-0.1521083
-0.44897947
-1.0112309
-0.042188757
-1.1583937
-1.2027154
-1.1604966
-0.32941571
-1.0672892
-0.49099336
-0.44404892
-0.95680006
-0.12285623
0.28969524
-0.90509078
-0.51894348
-1.1131842
-0.23897647
-1.0809345
-0.18436342
-0.61518854
-0.48618957
-0.61384468
0.27104666
-1.1272971
-0.75216864
-0.39756358
-1.1918756
-0.25879851
-0.71134792
-0.12604506
-0.57896559
-0.51694235
-1.4065661
-1.2133678
-1.2886439
-0.65731484
-1.1230646
-1.001776
-0.81356165
-0.32945627
0.88987668
-0.27681186
-0.77918858
-0.01841118
-0.82912765
-1.1923255
-0.81840082
-1.3046635
-0.43359444
-0.53759544
-0.62275958
-0.50296733
-0.2025673
-1.0396248
-1.1783737
-0.91329692
-1.2542202
-0.78194885
-1.1817422
-0.33578324
-1.2122076
0.24374632
-0.96053479
-0.281963
-0.96885985
-0.82617238
-1.0005348
0.79882078
1.4556879
-1.6907836
-0.18853724
-1.0273745
-0.2005436
-1.0036194
-0.31892618
-0.37437385
-1.6249661
-0.9538097
-0.28317473
-0.70849539
-0.85672184
-1.8808487
-1.7845295
-1.6117086
-1.5914581
-1.8084291
-0.82312476
-1.2712238
-1.5558484
-1.6098691
-0.64196414
-2.4384777
-0.81961903
-1.4337911
-1.1888066
-0.99030838
-1.3524124
-2.1496836
-1.3804168
-2.0005068
-1.4455971
-1.4966747
-1.7292405
-1.9676792
-1.7054949
-1.799185
-1.4607007
-0.2051517
-1.0745932
-0.65565251
-0.69544616
-1.7611881
-1.2013446
-1.7690157
-0.79888861
-0.7812149
-1.5654914
-2.1407079
-1.3571798
-1.0004457
-1.3961584
-0.88212935
-1.1794626
-1.8391697
-1.7206515
-1.3979767
-1.0198311
-1.5079409
-1.4791096
-0.82579482
-0.89722734
-1.3447478
-2.1674985
-1.705747
-1.5508744
-2.2708663
-1.4194574
-1.6541507
-2.059311
-2.0297764
-1.3106435
-1.9657434
-1.0270901
-1.6690364
-1.2129252
-1.8175117
-0.92977969
-1.3524247
-1.916484
-1.823661
-1.6246665
-1.482936
-0.7958038
-1.3923939
-2.3394826
-1.4521438
-1.9596907
-2.2114117
-1.3436138
-0.8566029
-0.78649979
-2.0213933
-0.67198971
-1.6994309
-1.8584365
-1.551377
-2.4084635
-1.2182059
-2.5030851
-0.96032593
-1.5609884
-1.281372
-1.0583862
-1.4730614
-1.1424067
-1.533953
-0.80807671
-0.65736281
-1.7720542
-2.1085635
-1.1454227
-1.3104139
-0.716461
-1.1524132
-1.5855661
-0.92816401
-1.4440322
-1.0952096
-0.85115982
-2.1150444
-1.2015848
-1.5552397
-1.8364512
-1.5814801
-1.0003341
-1.8457943
-1.4521802
-1.244046
-1.3438563
-0.81286307
0.18007775
-1.1866911
-0.82510525
-0.91647466
-0.68442777
-1.5499126
-1.1738289
-2.0254898
-1.585443
-0.97547463
-1.2548531
-1.9823451
-1.8532509
-1.8158824
-1.6878097
-0.83571192
-1.5399651
-1.0067634
-1.976857
-1.1953624
-1.4035732
-1.7528788
-2.1659948
-1.2394545
-0.062266279
-0.90596745
-1.4808518
-1.36534
-1.1247545
-2.5408816
-1.856257
-1.856414
-1.5457553
-1.2063893
-1.3871975
-1.3274102
-2.3986575
-0.812966
-2.3414184
-1.0830118
-1.3384752
-1.1937031
-1.742226
-1.1617325
-1.6400981
-2.2651671
-1.332949
-0.94933087
-1.6400985
-1.6606577
-2.6985025
-2.0698912
-2.0137938
-1.4503403
-2.1074241
-1.9951497
-1.9076176
-1.412903
0.9883648
0.009273096
-0.93116663
-0.39982186
-0.48666416
-0.045290343
-0.63546741
-0.16294662
-0.44262949
-0.13803025
-0.68894365
-1.0930349
-1.0784211
-1.996117
-0.80563171
-1.6465532
-0.47058709
-1.7790276
-1.5717864
-1.0292304
-1.6726921
-1.3286256
-1.1417199
-1.5676352
-1.9931938
-0.5801567
-1.3598716
-0.89184336
-1.6907059
-0.43430991
-0.25959898
0.33457718
-0.39799914
-1.4406797
-1.2021459
-0.5213163
-1.323561
-0.85847307
-0.2721029
-0.54516875
-1.2326912
-0.60683261
-1.0216583
0.62118731
-0.12652698
-0.64777544
-0.026574738
-0.55469038
-0.23436281
-0.36304316
-1.2560908
-0.61603691
-0.29132285
-0.63508319
-0.40674433
-0.25304716
-0.097141142
-1.268156
0.5272066
-0.91189429
-0.85275378
-1.3248765
-0.58959356
-1.1708946
-0.35372224
-0.37359559
-1.1429091
-1.1617147
-0.93110407
-1.0685595
-1.0743231
0.2516935
-0.37091928
-0.98304375
-0.31294595
-0.7613186
-0.4700365
0.079347364
-1.4314031
-0.70786717
-1.2608633
-0.83251589
-0.20605957
-0.56428209
-0.74629256
-0.94931842
-0.59777971
-0.61922543
-0.51641561
-0.38305814
-0.44965791
-0.61941407
-1.2048509
-0.39313175
-0.82689189
-0.75924987
-1.5295902
1.311735
-0.34888093
-0.5391528
-0.10264206
-1.774059
-0.71329521
-0.03784429
-0.96369903
-0.14170897
-0.38852312
-0.22853059
-0.8742232
-0.1110705
-1.2477365
-0.74608635
-0.7865858
-1.4286989
-0.17381668
0.39575265
-1.2519694
-0.96131375
-1.3363575
-0.85049433
-0.85520634
-0.50301902
-0.21965953
-0.63574408
-0.40070918
-0.8154963
-0.76148103
-0.52994381
-0.91473952
-0.24342994
-0.35629707
-0.11362749
-1.1381137
-0.82015286
-0.78000208
-1.0732379
-0.52903797
-0.68436416
-2.149887
-0.64329353
-0.87754114
-1.3735077
1.2346364
-0.59838628
-0.23303288
0.50703054
-1.4227794
-0.38574431
-0.64512823
-0.55023454
-0.5783832
-0.3945785
-1.3341901
-0.13770496
-0.86792738
-0.88808482
-0.56592305
-1.2525816
0.074355119
-0.31414522
-0.59454724
-0.57813084
-0.29389575
-1.2276301
-0.23903796
0.97257149
0.12723317
-1.1578563
-0.31294656
-1.5024363
-0.30797465
-0.58382831
-0.54727472
-0.15815505
-0.33710495
-0.92986004
-0.44339616
-1.1930324
-1.2066245
-0.36014543
-0.69488204
-0.24074581
0.16786411
-0.12059807
-0.34556915
-0.43484757
-0.61103442
-1.096458
-1.012887
-0.12163927
-1.0748012
-0.30026986
-0.67101152
-1.0785514
-0.72680126
-0.44344656
-1.0822587
0.95216147
-0.52733365
-0.87656829
-0.16293805
-0.33231269
-1.0335208
-0.45571711
-1.4131411
-0.34826007
-0.92450569
-1.2626644
-1.5782706
-0.89266452
-0.7280216
-0.42044232
-0.30288149
-1.165463
-0.066269514
-1.0885697
-1.1896021
-1.1860763
-1.454739
-0.72001719
-1.1863956
-1.2644089
-0.69456
-0.75431859
-1.1543617
-0.49237615
0.24638955
-0.23099591
-0.88952734
-0.95314061
-1.1786077
-0.22443028
-0.83526292
-0.29916561
-0.25076944
-0.65083721
-0.38873099
-1.374678
-1.3629398
-1.1321221
-1.4472112
0.49735835
-0.57014486
-0.50812626
-1.0739391
-1.2950961
-1.6820788
-0.69556724
-0.29099178
-1.0396783
-0.018966855
-0.63083771
-0.48917681
-1.7152078
-1.5409379
-0.7047169
-0.63642798
-0.54256551
0.41102283
-0.41866961
-1.5519177
-0.67415764
-0.17982244
-0.6938678
-1.0617871
-0.74993662
-0.46257987
-0.16835842
-1.6802879
-0.38612874
-1.1716136
0.22127782
-0.57261791
-1.238763
-0.52013541
-0.60750232
-0.76129659
-0.6362951
-0.64513276
-0.38263637
-0.57797844
-0.2393704
-0.8372762
-0.071946419
-0.2826734
-0.67981909
1.1715411
-0.58711806
-0.72532408
-1.6128056
-1.2774077
-0.22217722
-0.713207
-1.2361214
0.79076893
-0.84400337
-0.66358793
-1.0217032
-0.42957136
-0.041529553
-1.0839451
-0.9558762
-1.0522378
-0.67211122
-1.0780536
-0.66235479
-1.1435063
-0.24230043
0.053837206
-0.67831055
-0.092786578
-0.41626008
-0.55734715
-1.4861344
0.65891896
-0.00043895
-0.84162807
-0.19512459
-0.40564493
-0.81519244
-0.90947261
-1.2469143
-0.8697569
-0.32445152
-0.41657087
-0.99575897
-1.0295064
-0.71872045
-1.1308696
-1.2916665
-1.3561703
-0.10738682
-0.2147471
0.67834453
-0.44287
-1.370899
-0.63246206
-2.0890119
-0.70482047
-1.2293364
-1.1172513
-0.28866026
-0.98285925
-0.40427893
-1.3002233
-0.26263983
-0.38140352
-0.31848733
-0.41319246
-0.7285008
-1.1135982
0.39570006
-0.85336829
-1.32245
-0.95880031
-1.0099246
-0.80238687
-1.0514206
-0.75938194
-0.96935503
-1.0986551
-0.18535722
-1.5044021
-0.48444147
-0.38222894
-0.94333873
-0.87491026
-0.55418197
-0.54529368
-1.2433949
-0.7532296
-1.4364374
-0.22721756
-0.31508054
-1.0711717
-1.1476036
-0.09587551
-0.81263616
-1.3334169
-0.5786851
-0.91088208
-0.96738542
-0.49409729
-0.99192065
-0.30124005
0.11388478
-1.1992134
-0.78056299
0.31005728
-0.42920957
1.0071021
-0.19710697
-0.68256145
-0.74034187
-0.3798239
0.13844564
-0.43495686
-1.1010774
-0.54556642
-0.26784548
-1.4873447
-0.75174949
-1.0074138
-0.81903464
-0.44492175
-1.7756739
-0.8155468
-1.1837072
-0.41454145
-0.40845973
-0.50728744
-0.61112612
-0.64836427
-1.1446
-0.51597345
0.27693598
-0.14498799
-0.54144039
-0.93891114
-0.98054242
-1.0615963
-0.47632912
-0.85444656
-0.88293784
-0.52532081
-0.38011727
-0.71319942
-1.0603536
0.21210849
-0.066672115
-1.567946
-1.1333678
-0.87184537
-0.90103533
-0.75459996
-0.92687994
-0.44754391
-0.082984499
-0.27685116
-1.0559944
-1.5667294
-0.46819594
-0.75520279
-0.20946602
-1.6898265
-0.131212
-0.2423751
-0.39644958
-0.74591678
-0.27363986
-0.39322113
-0.92383252
-0.3280646
-0.70957714
-0.33386591
-0.32018019
-0.37382096
-0.87852612
-0.23773078
-0.24704218
-0.87463249
-0.39758173
-1.2779801
-0.59258961
-0.50909078
0.08460322
-0.92279672
-0.022335911
-0.32263457
-1.0854754
-1.4818771
-1.1360787
-0.22794914
0.009237085
-0.36024524
-1.0714832
-0.33139794
-0.75270719
-1.2789995
-0.80776823
-1.4085274
-1.059896
-0.21733773
-0.26069617
-0.40942753
-0.3786995
-1.1708079
-0.69954209
-1.4745719
-1.0331883
-1.0031462
-1.213243
-0.48019218
-1.1743366
-0.89120502
-1.3090194
-0.57832477
-0.82560646
-0.12269608
-0.55393519
-0.11577582
-0.2071644
-0.12681206
-0.80256588
0.045252652
-1.0831183
-1.1309554
-1.2781063
-0.44238152
-0.36952331
-0.6836054
-0.81547165
0.51427133
0.10187556
-0.91472384
1.2070444
-1.3182721
-1.0989537
-0.85003589
-0.68883808
-0.68594859
-0.31728089
-0.23818274
-0.29403214
-0.82850814
-0.1810854
-0.59377222
-0.41706834
-1.1190408
-0.33591346
-0.80033577
-0.98695694
-0.49919027
-0.4935571
-0.56408587
-0.47610112
-0.35989881
-0.16699802
-0.51873709
-1.2442412
-1.2200606
-0.72907279
-0.92803719
-0.29162783
0.22462688
-0.20540145
-0.10445506
-1.2195134
-0.48656256
-1.2066473
-1.2025147
-0.25633802
-0.44482877
-0.24790808
-0.66592077
-0.66949987
-0.76074496
-0.12255972
-0.63172471
-0.22610263
-0.73555365
-0.68485492
-0.73035772
0.023495186
-1.2666519
-0.046323761
-1.290067
-1.6106494
-0.49033004
-1.1821642
-1.5929137
1.1632914
-0.28696158
-0.88774423
-0.6786541
-0.94875568
-0.17478589
-0.36487081
-0.30907815
-1.2637569
-0.56425323
-0.80965203
-0.029986183
-1.103915
-0.37870045
1.638467
-1.0258973
-0.21385209
-0.37189517
-0.46617208
-0.72565503
-1.0827982
-0.8597262
-0.70501895
-0.23424187
-0.55356991
-0.94629495
-0.78328312
-0.36294067
-0.81437161
-0.3960602
-0.96405406
-1.2115997
0.04007833
-0.17416992
-0.32168028
-0.70473027
0.60680462
-0.86554434
-0.70164719
-0.69337519
-0.90318556
-1.0030798
-1.1321321
-0.5230793
-0.79710827
-0.77203997
-1.3286515
-0.37196838
1.0153271
-0.5073976
-0.60448628
-1.54339
-0.058129433
-0.74223288
-0.42117283
-0.57445442
-0.53586942
-0.14118592
-0.27892787
-0.15324656
-0.40369295
-0.038243167
-1.0056431
0.47233811
-0.44622808
-0.5474756
-0.65733107
-0.42436617
-0.79407278
-0.9127932
-1.0484367
-0.32798333
-0.39833711
-0.40236182
-0.87989824
-0.51763158
-0.28932767
-0.3479639
-0.57913532
1.3979023
-0.55067983
-0.9846697
-0.55566055
-0.51903677
-0.19545472
-1.461207
-0.78894557
-0.3635093
-0.54524017
-1.5661117
-1.1058629
-0.34591947
-0.51084284
-0.97103744
-0.18853225
-0.84672987
-0.66161417
-1.046142
-1.3183205
-1.2451001
-0.88499573
-0.96178772
-0.92399325
-0.65139189
-0.19882765
-0.5837102
-0.41458749
-0.045937806
-0.34511252
1.3247497
-1.0311295
-0.87410458
-0.15932961
-0.87890991
-0.32398212
-0.61704423
-0.2949197
-0.75692933
-1.0202969
-0.60783062
-0.36596153
-1.0968037
-1.5686194
0.003149059
-0.12324503
-0.1499832
-1.3572407
-1.3618048
-0.28992344
0.15472733
-0.67366904
-0.96318112
-0.30486849
0.81624576
-1.0251657
-0.92851427
-1.263289
0.72697125
-0.73126145
-0.18795284
-0.83706134
-1.456371
-1.1028709
-0.022761844
-0.72202365
-1.0562023
-0.61474273
-0.67960994
-0.57166678
-0.45034032
-1.3073689
-0.13594446
-1.0942809
-1.5356274
-1.063678
-0.98435193
-0.85960931
-0.4305311
-0.34576129
-0.62505597
-0.33557936
-0.1302031
-0.77149609
-1.0277146
-1.0331692
-1.0586393
-0.8186521
-0.81975493
-0.20849362
-0.96932226
-0.86679535
-0.059781425
-0.45287089
-0.11972975
-0.88601532
-0.46914679
-0.15406307
-0.45692685
-1.3275935
-0.12997989
-0.52180546
1.3457661
-0.29153709
-0.89738602
-0.99202823
-1.1699151
-0.05217145
-0.52710803
-1.5323073
-0.74985589
-0.63064465
-1.1210516
-0.95312666
-0.4146011
-1.400071
-0.46508176
-0.45449415
-0.63078665
-1.3691954
-0.42073667
-0.95815434
-0.13672973
0.64243103
-1.093526
-0.8853716
-0.37374261
-1.7329782
0.26636932
-0.55824445
-0.93550674
0.17399231
-0.78087485
-1.1669811
-0.53067365
-1.2803952
-0.53352162
-1.5315052
-0.68927988
-0.42569849
-0.53656909
-1.3408322
-0.46451788
-1.0613729
-1.2026059
-0.62417452
-0.28062246
-0.57865693
-0.96074856
-1.5421523
-0.65436996
-1.3793064
-0.64351907
-0.46519259
-0.066333262
-1.2295718
0.18915783
-1.1917915
-0.99815528
0.98352017
-0.52340461
-1.1743543
0.8182037
-0.94815267
-0.15763888
-0.53344996
-1.1625137
-0.95585345
-0.037103737
-0.41142961
-0.4568159
-1.2446945
-0.98704828
-1.5220743
-0.51898789
-0.71593526
-0.48063468
-1.444829
-0.60518797
-0.49159299
-0.17333817
-1.1726501
-1.0313678
-0.86889198
-0.26501315
-0.34101331
-0.68680032
-0.3866287
-0.59607444
-0.90928748
-1.6426251
-0.78761342
-1.032299
0.070731326
-1.0935526
-0.58624858
-1.0202072
-0.33007399
-1.252448
-0.36369938
-1.2624523
-0.56014873
-0.61703494
-0.96394032
-0.36324141
-0.78876912
-0.87024232
-0.47851979
-0.46801829
-1.0207282
-0.095054449
-0.69168379
-0.27640823
-0.93255445
-1.0484568
-0.99218369
-0.49257343
-0.11743434
-0.23940173
-0.19648191
-0.35690202
-0.048819522
-0.30335107
-0.61781658
-0.52391217
-0.73149708
-0.42352268
-0.7586341
-0.6452449
-0.53609145
-0.94688589
-0.34028816
-1.0534221
-0.72677453
-0.87126469
-1.0089588
-0.54614057
-1.3222859
-0.23973306
-0.19732131
-0.41077649
-0.94095203
-0.36546482
0.73035325
-0.11861055
0.40767487
-0.47036013
-1.0277246
-1.1689414
-0.96037609
-0.35824164
-0.53668995
-0.79283762
-1.5298745
-0.46740874
-0.29624575
-0.52916853
-1.0082258
-0.96496974
-0.74464392
-0.15706937
-0.093298322
-0.63754362
-0.86625694
-0.51608041
-0.53728797
-1.2817241
-0.62593029
0.29023204
-1.3927365
-1.1666292
1.2903658
-0.33510395
-1.1251772
-0.22889358
-1.226723
-0.64292071
-0.46192679
-0.74052469
-0.83528749
-0.23611842
-0.59266804
-1.5982328
-0.53344489
-0.34870264
-1.0349901
-0.57125985
-0.40396656
-0.65467001
-0.43887756
-0.65399949
-1.3751892
-0.47577489
-0.45011433
-0.22245025
-0.21710594
0.43801296
-1.2200444
-0.60640071
-0.28588718
-0.23314715
-1.0949654
-0.34970609
-0.40258192
-0.59859293
-1.1309897
-0.13643433
-1.4125067
-1.1532497
-0.9553919
-0.77200452
-1.3890733
-1.5586234
-0.94028562
-0.28287665
-0.38334094
-0.33575317
-0.41620323
-1.0006106
-1.5952457
-1.6137647
-0.93065442
-0.64444242
-0.31071403
-0.40827002
-1.4236156
-0.90348998
-0.5078839
-1.0303543
-1.4376116
0.44622055
-1.0934766
-1.2608814
-0.32925774
0.53377787
-0.23535162
-0.62462157
-1.0087993
-0.33074274
-0.84733868
-0.81451267
-0.10792417
-0.81960112
-1.4758053
-1.0962144
-0.46620305
-0.55481621
-0.62785922
-0.80483305
-0.22871429
-0.37131901
-0.75173733
-0.95936764
-1.4581447
-1.4048985
-0.68560162
-0.55674849
-0.18575504
-0.75687234
-1.1358745
0.079623012
-0.19543377
-0.56425
-0.7130061
-0.43894921
0.84041838
-0.3814015
-0.19174503
-0.3296127
-0.49141014
-0.78442803
-0.079250066
-0.76505611
-0.31881839
-0.57330364
-1.3566955
-0.76846324
-1.0120372
0.79943039
-0.25649217
-0.38778984
-1.5160064
-1.0250954
-1.263577
-0.74865493
-0.38802336
-0.70447118
-1.2109727
-0.93638121
-0.79997519
-1.4496969
0.26718761
-0.76346871
-1.3974025
-0.54103361
-0.19566348
-0.35235103
-0.27154637
-1.2292046
-0.78101691
-0.23303274
-1.0596074
-0.27396049
-0.21600257
-0.99899318
-0.90060591
-0.38610672
-0.7266567
-1.0713193
-0.45443973
-0.35401906
-0.77875518
-0.45073292
-0.75183791
-0.33067345
-0.83713839
-0.33861609
-0.39901412
-0.74152027
-0.62129579
-0.61410823
-0.45155366
-0.41157559
-1.2891202
-0.077547018
-0.89733236
-0.16853802
-1.2434746
-0.37966499
-0.64133965
-0.49399838
-0.5678151
-0.90289376
-0.81388314
-1.0426155
-0.35961009
-1.150728
-0.25650556
-0.64274556
-0.62897728
-0.20005287
-1.4794498
-1.4488373
-1.5387007
-0.42219762
-0.92605045
0.64640077
-0.50709741
-0.59329832
-0.4046566
-0.34414859
-1.3550819
-0.32780304
-0.55086854
-0.10718755
-0.43778984
-0.89197066
0.15692713
-0.89229525
-1.6327204
-0.60496902
-1.0132563
-0.54331146
-0.44372556
-0.57248142
-1.3909598
-1.3369883
-0.46718667
-0.9045609
-0.63025912
-0.22183258
-0.21909242
-0.36720454
-0.71386569
-1.1032904
0.91678891
-0.43581204
-1.0133485
-0.78921124
-0.69965957
-0.49271595
-0.45690583
-1.3602599
-1.2294286
-0.71159849
-1.3239483
-0.378407
-0.25410307
-0.014233449
0.68287484
-0.96539076
-0.63751915
-0.33520948
-1.0397994
-0.59420937
-1.7073227
-1.6913285
-0.86658109
-0.26349885
-1.4418386
-0.5698262
-0.75510711
-0.78237004
-1.0211233
-1.5498699
-0.71247403
-1.1442262
-1.2239999
-0.81695034
-2.1979111
-0.33452844
-0.99333452
-0.83541788
-0.74991277
-0.54418007
-0.4449251
-0.73043578
-0.25594889
-1.0362189
-0.78102843
-0.35652954
-0.31167395
-0.072388459
0.36016003
-1.2338659
-1.1537511
-0.31704515
-1.1775986
-1.0565031
-0.83147142
-1.0299826
-1.5629759
-0.33826295
-0.90907864
-0.60161472
0.22871424
-0.91757808
-0.74879191
-0.72546242
-0.1476599
-0.75510511
-0.57000472
-0.24075399
-0.10055061
-0.47395343
-0.33789669
-0.25797051
-0.58806994
-0.027582855
-1.3455369
-0.22321496
-0.30546912
-0.74280169
-0.52694939
-0.68927097
-0.31118838
-0.74553496
0.13377508
-0.58112702
-0.46875643
-0.6057202
-0.62107737
-0.15751486
-1.0163948
-0.88602466
-1.0637676
1.1535699
-0.61142742
-0.29808101
-0.60321763
-0.12471419
-0.31505312
-1.1075965
-0.74122567
-0.036982698
-0.18351728
-0.56771733
-0.46178109
-0.6007961
-0.24559092
-0.97872792
-1.4654617
-0.3810989
-0.028121554
-0.89580208
-0.73934793
-0.76716058
-0.47703648
-0.18455801
-0.35493238
-0.42211456
-0.64021951
-1.1649387
-0.4482266
-1.0942159
-0.61637253
-0.85168805
-0.95552759
-1.2145034
-0.63749306
0.51172208
-0.52645335
0.6961997
-0.17648918
-0.51169629
-1.0974266
-0.42377046
-0.31130383
-0.99236038
-1.4084058
-1.2232141
-0.23474975
-0.34897109
-0.72614046
-1.5228996
-0.63399438
-0.063123988
-0.32285952
-1.1364699
-0.78552156
-1.3285545
-1.2133262
-0.42710485
-0.23041988
-1.1316606
-0.60278699
-1.2070262
-0.84848186
-0.94018564
0.095828191
0.77699924
-0.55756789
-1.0788505
-0.94920974
-1.1154082
0.066933252
0.16842356
-0.42324922
-0.23407582
-0.87009511
-0.88917867
-1.3712181
-0.76572188
-0.30425901
-0.18116303
-0.55191447
-0.79252843
-0.67405432
-1.2517429
-1.10031
-0.39651933
-0.76157071
-0.35375831
-0.35705311
-0.19690175
-0.5842857
0.30419852
-1.5642617
-0.7634195
-0.28663767
-0.34761453
-1.1606634
-0.4474309
-1.0333168
-0.39908653
-0.64474188
-0.50935537
-0.97021394
-0.5574896
-0.94094514
-0.42205733
-0.70828422
-0.32524193
-0.80378766
-0.24208493
-0.87958625
-1.1166177
-1.3017658
-0.60258214
-0.68286265
-0.90295245
-1.055687
-0.32514474
-0.94197078
-0.58150659
-0.32039853
-0.38162857
-0.94119782
1.533771
-0.40914822
-0.75734928
-0.91070365
-1.5011373
-0.91574327
-0.81402946
-0.23685984
-0.38280069
-0.24333806
-0.38794332
-1.1907446
-0.08351934
-0.1680879
-0.91638479
-0.40832461
-1.1193359
-1.6576616
-1.1622893
-0.1388057
-1.55148
-0.5901007
-0.70916159
-0.28110709
0.23110397
-0.66190294
-0.56526335
-0.97631069
-0.49498147
-1.3136464
-0.38005623
-0.83884644
-0.29530662
-0.070169239
-1.4458004
-1.17406
-0.97406361
-0.82434211
-1.0328814
-0.66800526
-0.67229875
-1.905205
-0.45039791
-0.14712205
-0.45010396
0.041082299
-0.34235771
-0.069757391
-1.2643675
-0.17155819
-0.3482952
-0.49174045
-0.76133139
-1.0674675
-0.029011411
-0.44464487
-1.3573839
-0.008843157
-1.3261168
-0.37302396
-1.1453278
-0.53959018
-0.48140522
0.50600467
-1.4831113
-0.63859429
-0.16389748
-1.2806078
-1.029498
-0.27417051
-1.0647848
-0.806835
-0.45342082
-0.39090781
0.71346616
-0.50637265
-0.9779762
-0.60509549
-0.81778769
-0.31377999
-1.0424406
-0.41435044
-1.0292038
-0.45167324
-1.6969856
1.5504974
-1.149186
-0.24434072
-0.8094793
-0.7841309
-0.92467459
-0.82840545
-0.68017626
-0.44205535
-0.32354351
0.2614757
-0.24986382
-0.62001614
-0.39385841
-0.14548586
-0.59841896
-0.28412526
-0.71337731
-0.7956607
-0.18702444
0.16089905
-0.74415823
-1.0969293
-1.3811917
-0.60131427
-0.34871428
-0.26198345
-0.47629646
-1.1381197
-0.43338371
-0.80698473
-0.32614868
-0.84093157
-1.0000839
-0.60213312
-0.77303845
-0.66456661
-0.47703842
-0.44106757
-0.20948968
-1.1170994
-1.1755126
-0.64451478
-1.6817502
-1.0037206
-0.60288048
-0.22687464
-1.3170221
-0.91052581
-1.29753
-1.349808
-0.71360538
-0.71430486
-0.22661946
-1.1662133
-0.49871603
-1.5872993
-1.034264
-1.1741881
-1.3441924
-0.76082995
-0.59659169
-0.80974566
-1.5319704
-1.4741548
-0.62646684
-0.64440146
-0.64389809
-0.25551932
-0.73561502
-0.12415959
-0.450608
-0.33165166
-1.1272351
-0.42249176
-1.6530428
-0.39540532
-0.43835643
-0.8608178
-0.7071779
-1.8045077
-1.7635097
-0.30166903
-0.42503486
-0.37190476
-1.5204921
-0.82901375
-0.50269571
-1.0009757
-1.4182393
0.10262742
-0.52717746
-1.0899893
-0.61789381
-0.30504964
-1.2938225
-0.80180109
-0.19806418
-1.2346018
-0.063335972
0.06409639
-0.38039906
-0.92322965
-0.60947856
0.012784907
-0.65654035
-0.33434732
-0.29236857
-1.0512214
-0.67225866
-0.09496081
-0.49289792
-0.11748854
-0.27027636
-1.4365156
-0.34221917
-0.36267895
-1.1386365
-1.5486015
-0.5881146
-0.68211428
-0.65882377
0.6636284
-0.75445377
-1.8187144
-0.14816776
-1.2898765
-0.26348359
-0.56707057
-1.3388358
-0.39916608
-0.46904714
-0.84810529
-1.0598336
-1.648329
-1.0268627
-0.90525595
-1.0221041
-1.2142762
-1.0961661
-1.2050604
-0.24140624
-0.94360386
-0.84856687
-1.1283462
-0.74045252
-0.51924359
1.2568918
-0.71515265
-0.72793774
-0.49062603
-0.11273776
-0.84277604
-0.35843606
-0.57802377
-1.1504693
-0.68033109
-0.38843336
-0.30023391
-0.47638559
-0.97244944
-0.49114408
-0.78284571
-0.36160352
0.063406143
-0.64830024
-1.5628389
-0.42848335
0.23865757
-0.281995
-0.55951738
-0.42919682
-1.344857
-0.43424234
-0.79610828
-0.34175101
-0.29206955
-0.18306149
-0.99962596
-0.96271007
-1.0353139
-0.36378748
-0.91070956
-1.5156709
-1.0691955
-0.93963136
-1.6799912
-0.095161128
-0.58277351
-0.46544719
-0.64773094
-0.59003064
-1.1481324
-1.1545901
-1.4121506
-0.69801659
-0.80981384
1.0383675
-0.75791113
-0.53646835
-0.50357
-0.66907769
-0.42222678
-0.47499816
-1.331656
-0.78631835
-0.32794417
-1.0393586
-1.2780707
-1.2750613
-1.3307459
-0.4531603
-0.91232294
-0.80806418
-1.3949271
-1.1516778
-0.10378274
-0.72133367
-0.47159015
-0.47841109
-1.1056734
-0.61087873
-1.3387369
-0.60951844
-0.50164446
-0.23839319
-1.0129427
-0.22774119
-0.59929903
-1.450099
-0.86159193
-0.87245859
-0.5638191
-0.36370031
-0.30423116
-0.62929022
-0.23881382
-1.0862906
-0.37302308
-0.25597472
-0.89961173
-1.135151
-1.1952996
-0.8919835
1.2440393
-0.21526358
-0.66493353
-0.44054601
-1.0482982
-1.3943437
-1.3477084
-1.3350978
-1.2751432
-0.12867917
-0.33486422
-0.69641672
-0.37564033
-0.66973122
-0.7226304
-0.27816966
-0.49008389
-0.59454127
-0.66176405
-0.63156028
-0.98047633
-0.48353474
-0.44301145
-0.18726945
0.52894096
-0.71215411
-0.99098691
-1.6573416
0.045553105
-0.54510757
-1.4782184
-0.55782996
-1.1026461
-0.89037279
-0.38348283
0.7131572
-0.82840276
-0.80022585
-0.75864097
-0.27385208
-0.21422398
-0.15357935
-0.04179774
-0.51270104
-0.76869412
-0.13521339
-1.1267229
-0.33974636
-0.96716614
-0.35869804
-0.25604024
-0.97617104
-0.291154
-0.35861426
-1.4941711
-0.71844976
-0.85283679
-2.0832544
-0.80576529
-0.33699587
-0.6893671
-1.3047341
-0.52870721
-0.41911776
-0.54955014
-1.2603984
-0.049407259
-0.5297676
-1.1403332
-0.68639624
-1.1741984
-0.01844636
-0.37726066
-0.57291418
-0.78136639
-0.22036128
-0.5520309
-0.52148937
-0.5716136
-1.0948973
-1.4303307
-0.63331292
-0.96301367
-0.35526301
-0.21681277
-0.36015444
-0.32535281
-0.10216918
-0.60131274
-0.51887648
-0.25159427
-0.72279918
-0.24229626
0.14071878
-0.29211728
-0.36305439
-0.15905461
-0.033898772
-0.27786393
-0.62199462
-0.39055001
-0.33717114
-0.12429036
-0.56949177
-1.0536084
-0.9859646
-0.18705465
-0.8427812
-0.59686391
-0.99030068
-0.75825591
-0.87446415
-2.193365
-0.43319926
0.2621317
-0.72182054
-1.3915374
-0.70704899
-0.8315104
-0.64972959
-0.87714162
-1.464494
-0.37847408
-1.0419282
-0.71666303
-0.88266454
-0.21235483
-0.54447111
-0.9434789
-0.37004532
-0.99745276
-0.42602206
-0.27773626
-0.22794787
-1.1607394
-0.3276504
-0.24814663
-0.46830542
-0.46292676
-0.8862221
-1.4671899
-0.30051109
-1.3910252
-0.65642098
-1.2567116
-0.66097485
-0.34520384
-0.83525181
-1.4428559
-0.18918731
0.37087274
-1.3911963
-0.21477353
-1.5857042
-0.32943654
-0.53489947
-0.95852218
-0.31889239
0.041393655
-1.177627
-0.84670124
-0.9879404
0.4245451
-0.77076606
-0.28198942
-0.37433692
-1.425095
-0.40317811
-0.2636622
-0.24835028
-0.1116218
-0.68483493
-1.5998673
-0.15937631
-0.8777243
-1.3291249
-0.1824777
-0.30826754
-1.4365151
-0.44807858
-1.2432395
-0.77447464
-0.31383713
-1.3709781
-0.07866011
-1.1489789
-0.74291719
-0.059584834
-0.74484792
-1.2948136
-0.72837751
-1.0409242
-0.18253743
-0.33590813
-0.70999261
-0.2432007
0.88454946
-1.3377859
0.029133035
-0.66102054
-1.0664985
-0.73292101
-0.33369768
-0.035673445
0.12462926
-0.90676741
-0.24948171
-1.2408254
-0.83570563
-1.0011527
-1.0260851
-0.022524723
-0.46536846
-0.73499744
-0.40865394
-0.18824041
-0.4685333
-0.28038699
-0.54965745
-0.69088544
-0.30177361
-0.84759069
-0.89499603
-0.70206442
0.91580177
-0.99399678
-0.47909366
-0.56972418
-0.38695287
-0.5089099
-0.31918015
-0.57815416
-0.32006686
-1.0338163
-0.24267006
-0.73195669
-0.24631996
-0.8579236
-0.23055814
-1.3723756
-1.120861
-0.15653585
-1.0788335
-0.70027762
0.086391598
-1.1179628
-1.5154596
-0.8851295
-1.1724898
-0.97930991
-0.61212856
-1.312512
-0.79364033
-0.87062662
-0.53622919
-0.41122247
-0.41619396
-0.7165466
-0.48049212
-0.87967534
0.30692927
-0.67315322
-0.58730075
0.37556847
-1.0989548
-0.91727721
-0.75934144
-0.59755239
-0.39583998
-0.062143202
-0.61612626
-1.4225422
-0.46106965
-0.38233294
-0.12208652
-1.1679533
-0.28616816
-0.76677396
-0.36072994
-0.58588509
-0.19609984
-0.21997889
-0.68780245
-0.66554298
-0.24148318
0.70109325
0.41865384
-0.70953364
-0.41444484
-0.77806463
-0.67948704
-0.40971189
-0.43452372
-0.40323882
-1.0595805
-0.37453784
-1.3298815
-0.85378139
-0.30195973
-0.11688014
-0.64015161
-0.40269321
-0.098000034
0.47809968
-0.025007944
-0.61271733
-0.6585096
-0.38113575
-0.70465976
-1.2827215
-0.32721861
-0.43276661
-0.3117584
-0.18123008
-0.37104421
-0.92356771
-0.26065466
-0.42266541
-0.45033323
-1.2444922
-0.31651473
-0.37576631
-0.11165915
-0.92083304
-0.42212131
-1.1443073
-0.19514677
0.069825154
-0.6075763
-0.36293032
-0.60678089
-0.70857596
-0.77244513
-1.1349184
-0.98521011
0.34780028
-0.076276513
-1.3148259
-0.53006517
-0.89638582
-0.8597396
-0.57797058
-1.17144
-0.10766998
-1.1488923
-0.7099045
1.3633362
-0.59848346
-0.86427647
0.89029277
-1.5040854
-0.69995255
-1.0370971
-0.40927161
-1.0561904
-0.1202489
-1.0434828
-0.11417638
0.010233259
-0.57465337
-1.0885681
-0.8158767
-0.26586418
-0.78032988
-0.844622
-0.35356624
-0.088373882
-1.0504425
-0.60980034
-1.4329712
-0.39544391
-0.1774306
0.12383885
-0.4541898
-0.91354509
-0.42264143
-0.38719424
-1.0902034
-0.80255639
-1.4425769
-0.62198792
-0.31144571
-0.37579188
-1.5221026
-0.5739844
0.076563047
-0.59537016
-0.4950275
-0.53576658
-0.21289162
-0.25347967
0.17008391
-0.57131594
-1.3614172
0.52713918
-1.5437699
-0.061580205
-0.6712707
-1.3792298
-0.093896533
-1.1530656
1.4537034
-1.3226132
-0.66748316
0.19130322
-0.96255078
-1.3472772
-0.99026326
-1.2821382
-1.1378363
-0.22611336
-0.1191032
-0.044064062
-0.27650741
-0.65446384
-0.48904595
-0.91945138
-0.33156477
-1.3383322
-0.48512328
-0.046683827
-0.50706
-0.54423757
-0.80160466
-0.21534873
-0.98136092
-0.18932889
-0.25044117
-1.0446223
0.093684044
-1.3908998
-0.49900128
-0.28109062
-0.6078351
-1.169337
-0.76339345
-0.10791372
-0.25344895
-1.3135245
-0.2131509
-1.1466183
-1.0618212
-0.98766852
-0.85469478
-1.0428006
-0.46448321
-0.9427832
-0.41331698
-0.25012519
-0.33254272
-0.42548335
-0.38563509
-0.96407159
-0.53809437
-0.31717487
-1.4360246
1.3214063
-0.4247158
-0.69048348
-1.25694
-1.0436582
-0.52228608
-1.2277576
-0.41765551
-1.3458989
-0.17867405
1.7019583
-0.6119483
-0.53896639
-0.84100808
-0.70128589
-0.39371337
0.15117076
-0.49451969
-0.85477832
-0.44384757
-0.11291525
-0.24257946
-1.2896284
-0.7670614
-0.9640618
-0.54489958
-0.25849218
-0.55416984
-1.0734334
-0.7248437
0.16448665
-0.054209893
-1.1024388
-0.73482857
-0.15231425
-0.15753353
-0.49718077
-0.80988184
-0.98669881
-0.66644175
0.19654279
-1.3928041
-0.55873289
-0.97145271
-0.90813013
-0.53643932
-0.55318097
-1.019863
-0.33077713
-0.89270516
-0.34666557
-0.093412586
-0.20919804
-0.53274776
-0.5672712
-0.77927806
-1.1335348
-0.34204512
-0.63655215
-0.41086288
-1.0844359
-0.62309788
-0.42675717
-0.50827964
-0.63373713
-0.76931332
-0.21384121
-0.78179635
-0.88821656
-0.66521768
-1.3016823
-0.81624199
-0.16257504
-0.080466069
-1.1806986
-0.50847734
-1.3279156
-1.2533065
-0.2305437
-0.26861795
-0.86043513
-1.1151139
-0.12062577
-1.7184974
-0.31661557
0.29331629
-0.64898275
-1.1550398
-0.49655153
-0.32307516
-0.81572576
-0.88603409
-0.9173796
-0.72962538
-1.0919934
-0.85828591
-0.14356909
-0.3081105
-1.1433812
-0.98713894
-0.45082612
-1.5586885
-0.32494162
-1.1603789
-1.0130046
-0.99943892
-0.87910005
-1.0883245
-0.48499329
-0.42648978
-0.37451288
-1.29794
-1.2144741
-0.21041012
-0.23825293
-1.2609341
-0.23783319
-0.54357818
-0.57478571
-0.5134978
-1.3668221
-0.82933919
-1.3111173
-0.40158267
-0.92812213
-1.2636624
-1.0278662
-0.37497594
-1.5200362
-0.46820652
-0.31268942
-0.52290289
-0.33490825
-0.78661768
-0.51737297
-0.38061575
-0.81871721
-1.3767368
-0.69326805
-0.34015015
-0.045179596
-0.88937726
-0.64310051
-0.33150102
-1.4596398
0.022593118
-0.92661633
-0.63479983
-0.99448078
-0.6086123
-0.3626928
-0.71672138
-0.71487695
-0.28164832
-0.63279262
-0.88404383
-0.66002275
-0.15093543
-0.53856244
-0.40561933
-0.83836598
-0.97734508
-0.35395098
1.8986267
-0.89697112
-0.86782576
-1.1047953
-0.5580372
-0.30444174
-0.5836235
-0.57597995
-0.30848479
-1.2045058
-0.78679683
-1.2282962
-1.0368603
-0.5937037
0.007724445
-0.24644339
-0.85370364
-1.4242497
-0.005219971
-0.40731267
-0.48838127
-0.74990261
0.01375832
-1.4768302
-0.87252037
-0.78412582
-0.2443083
-0.66176958
-0.016563657
-0.60915363
-0.51797257
-1.3728037
-0.23210748
-1.4000824
-0.67874758
0.98089867
-0.30051271
-0.88331108
-0.88533567
-0.5478487
-0.47413193
-1.0149854
0.55117629
-1.1791194
-0.31904126
-0.37749307
-0.49866296
-0.3441956
-0.036723123
-1.5557432
-1.0479362
-1.0974953
-0.36824549
-1.4035153
-1.3238586
-1.0237236
-0.43503143
-0.61245296
0.23500533
-0.28681212
-0.12157969
-0.73538355
-0.83505211
-0.59229159
0.056125157
-0.68549665
-1.1307873
-0.50113967
-0.67135165
-0.16937414
-0.42309606
-1.646448
-0.81630588
0.18781883
0.34775807
-0.4767514
-1.0688357
-0.5070406
-0.62614457
-0.50168916
-0.19743468
-0.8867441
-1.2369786
-0.39081077
-0.75871372
-0.76167381
-0.5012675
-1.1824976
-0.80647342
0.013203223
0.18560672
-1.5095036
-0.76431122
1.1191651
-1.3072709
-0.48905764
-1.2053349
-1.023269
-0.26779725
-0.38814418
-0.25756373
-1.0957063
-0.92757771
-0.032475111
-0.36630245
-0.1724452
-1.3895031
-0.56038502
-0.95317993
-1.2647637
-0.38870027
-0.48961755
-0.90537693
-1.5140903
-0.73129366
-1.2540538
-0.44867083
-0.36680296
-0.54109042
0.29669187
-0.69644923
-0.85770287
-0.18818703
-1.7552144
-0.36914998
-1.3480069
0.68668508
-0.85545495
0.22210898
-0.86030345
-1.5845493
0.014625502
-1.1210994
-1.1030172
-0.093868233
-0.71290002
-0.14073968
-0.15631778
-0.32238279
-0.20807561
-0.37458557
0.19711666
-0.53207994
-0.25624666
-0.9747704
-0.2327259
0.12902416
-1.5747037
-1.0837468
-0.45119947
-1.1518028
-0.79620907
-0.92635344
-0.96132077
-0.83559332
-0.41492603
-0.88242187
0.21151838
-0.75884696
-1.2750684
-1.2786326
-1.3066166
-0.61409769
-0.56998322
-0.19487776
-0.46076686
-0.4309087
-0.35092302
-1.3872607
-1.1070413
-0.88353828
-0.064493489
-0.74026151
-0.39506986
-0.46889012
-0.22951828
-0.76481364
-1.2936181
-0.81499674
-1.3081685
0.88890165
-0.23045543
-0.92779247
-1.0676419
-0.48238726
-0.68995117
-0.51487457
-0.20546005
-0.05822673
-0.45092026
-0.89887208
-1.1681699
-0.68959137
-0.31812099
-1.3938107
0.30586249
-0.33312665
-0.19229392
-0.30430629
-0.23322579
-0.12513536
-0.26449647
-1.4305933
-0.66242618
-0.77430537
-0.20402386
-0.79437334
-0.41535544
-1.453641
-0.89764509
-1.0829187
-1.7668016
-0.75574961
-0.30625459
-0.5418536
-1.2776535
-0.97220249
-1.3453801
-0.53075482
-0.57801741
-1.514777
-1.198563
-0.94250282
-1.0606961
-0.48320926
-1.393042
-0.69926247
-0.42030438
-0.39236001
-1.0068556
0.14098636
-0.68486014
-0.48458511
-0.54563778
-0.054361894
-1.1163885
-0.31526465
-0.85509624
-0.93768928
-0.67984193
-1.3510824
-0.64912245
-0.71690197
-1.2960328
-0.58078143
-0.61081766
-0.44804481
-1.0571805
-0.79902019
-1.7595231
-0.81863498
-1.0763526
-0.1159243
0.78214625
-0.33548719
-1.1600892
-0.79137832
-1.024729
-0.91031943
-0.54051697
-0.96115819
-0.89777487
-0.56025906
-0.82612807
-0.32387906
-0.046128327
-0.59752796
-1.4881437
-0.88620304
-0.043451896
-0.21399105
-0.44652346
-0.54820774
-0.65094102
-1.1600989
-0.58018574
-1.0114137
-1.6812055
-0.62851793
-0.89103839
-1.2004905
-0.32115643
-0.91491886
-1.2996706
-1.4895653
-0.5622815
-0.93131239
-1.0110335
-1.1603313
-1.1075409
-0.8347663
-0.71160674
-0.20412264
-0.10501277
-1.5494905
-0.39635702
-0.73182337
-1.0569718
-0.68261567
-0.80693353
-0.36589298
-0.36429928
-0.17800529
-0.56603051
-0.63568701
-0.78666882
-0.64957697
-0.71906471
-1.1291342
-1.1356383
-0.3327059
-0.67166311
-0.25948846
-0.23376219
-0.62185129
-0.32733682
-1.8815931
-1.0631409
-0.37362502
-1.0640103
0.2675439
-0.81300898
-0.39622293
-0.13241835
-0.37689354
-0.80170068
-0.62079713
-0.47590061
-1.3619268
-0.62358564
-0.38549851
-0.7222186
-0.47732666
-0.37166338
-1.0708345
-0.6761001
-1.3644289
-0.76453831
-0.41866217
-1.5510108
-0.83210212
-0.93506497
-1.162603
-0.21457173
-1.9858654
-0.98916047
-0.25665417
-0.9293386
-0.85473273
-0.66142802
-1.8787624
-0.93331215
-1.5099225
0.35290484
-0.12982086
-0.21170081
-0.41397227
-0.54347113
-0.92603958
-0.36287252
-0.97237549
-0.74104061
-1.1451992
0.30928604
-0.96003271
-0.39112733
-0.48742913
-0.4646006
-0.87725738
1.3094731
-0.34090934
-0.38156276
-1.6400088
-1.243939
-0.94228378
-1.3333301
-1.5849106
-1.1996126
-2.1671836
-1.9000241
-1.5997176
-0.91880569
-0.83006339
-0.79638112
-1.7710814
-1.6547178
-0.75068613
-1.72028
-1.9279781
-1.8178047
-1.1174261
-1.085468
-0.60663981
-2.2218293
-1.6598173
-1.0244411
-1.6846232
-0.63458947
-1.9556268
-2.0701674
-1.5705914
-1.8619542
-1.60906
0.39351063
-1.7950363
-1.454532
-1.6124866
0.26404192
-2.7847863
-1.9261608
-1.066332
-1.1113671
-1.7317818
-1.926762
-1.1334589
-1.5127444
-0.84864415
-1.1781179
-2.3308875
-1.4811259
-1.8766782
-0.93256096
-1.90907
-2.048632
-1.9624654
-1.2323025
-0.96506105
-0.79307846
-1.3336959
-2.7975838
-0.96760525
0.069401792
-0.95380433
-1.0460924
-1.7799624
-0.64298561
-2.2928703
-1.3852647
-1.4915237
-0.67572033
-0.86289999
-0.74920777
-1.1859487
-1.4290227
-0.51991929
-1.2311152
-1.7918025
-1.061184
-1.0249854
-2.6718481
-0.75010478
-2.2844559
-2.2123699
-0.96204566
1.1718385
-0.89215409
-3.9121247
-0.65827471
-2.1612797
-1.2050427
0.20386071
-0.017971177
-0.8265254
-0.77870981
-1.915381
-2.170211
-2.0938545
-0.74012109
-1.156894
-1.1264494
-0.87032249
-0.85282734
-2.1059567
0.24472102
-1.4859022
-1.0996072
-1.2886758
-4.1424756
-0.98942533
-1.8559424
-2.3385548
-0.25356773
-1.8150422
-0.74461401
-0.87664358
-0.80517958
-2.3720384
-0.69810688
-1.2215317
-2.5369853
-1.435998
-0.94346611
-1.4810538
-0.88840264
-1.290118
-3.1209196
0.32851919
-3.1722964
-1.3783258
-2.7562427
-1.2758774
-1.4564546
-1.1266572
-1.2960081
-1.6947493
-2.1653396
-2.1864843
-1.2633178
-2.0114081
-2.1241205
-1.2430275
-1.2616135
-1.6691167
-2.4850886
-1.8887936
-1.0294886
-1.240098
-0.77095191
-0.82495126
-1.9372869
-2.081856
-1.1994592
-1.2000935
-0.94655469
-0.23127773
-2.0789784
-0.36701307
-0.85807777
-1.4442746
0.11393452
-1.4701383
-1.2292338
-1.7355509
-1.51789
-0.67270404
-0.98330864
-0.61802578
-1.22031
-0.98314545
-0.027541052
-1.0846596
-0.98825165
-1.3523082
-0.22283492
-1.6761568
-1.8127521
-0.95737377
-1.0351149
-1.6816646
-0.6025803
-1.56893
-0.73043036
-1.5114194
-1.47424
-1.4262619
-0.64363896
-1.2935476
-1.098015
-3.5044542
-0.85756329
0.27189213
-1.5733628
-1.5155825
-1.7857499
-0.98476964
-1.0814489
-1.9874231
-1.7320542
-0.87359348
-0.88619409
-1.8444393
-1.9653603
-2.3132566
-0.68359339
-1.0604597
-0.81664234
0.95975489
-1.0004428
-1.9467342
-1.3539727
-0.93842094
-1.5408566
-0.91044858
-0.82847578
-1.4444782
-0.94053946
-0.57824428
-1.5120471
-1.3278099
-1.1080361
-0.84511198
-0.75162172
-2.1909743
-1.145924
-1.7149104
-2.0382808
-1.1648489
-0.86493669
-1.7965804
-2.0932262
-1.0336292
-2.7900678
-0.58453724
-1.0486995
-1.9762582
-1.0845689
-1.3626982
-1.0494614
-2.0716545
-0.74659827
-1.5425959
-2.2900008
-2.0004199
-0.86422072
-1.1460483
-1.5232319
-2.2196327
-2.3364667
-2.2703711
-1.3592553
-3.1679406
-1.6770335
-0.92024864
-2.8496276
-0.89402044
-1.2366111
-0.67298791
-1.0413643
-0.46614294
-0.76173963
-1.6322003
-0.78392577
-2.1327794
-1.5228436
-0.89878639
-0.21769381
-0.30276498
0.31314717
-1.5456356
-2.1392274
-1.8975176
-2.1801482
-1.3994082
-1.4939268
-0.69713333
-0.29488308
-0.90070594
-2.12784
-1.6978789
-2.4838164
-0.67169589
-1.5772487
-2.1018037
-1.2508347
-1.0905193
-0.18338503
-1.3774024
-2.1539004
-1.0907601
-2.7757639
-1.3667455
-1.7246313
-1.6022541
-1.4967154
-1.5015024
-0.79597382
-1.9521263
-1.6844516
-1.0465997
-2.6027907
-1.8202087
-0.35561369
-0.77042754
-1.5636377
1.1743452
-0.075443298
-1.2357079
0.11528133
-0.8923672
-2.7209461
-1.3805186
-2.4475238
-2.0594289
-1.8678934
-1.9690951
-0.96976017
-1.9907792
-1.3213131
-1.5319526
-1.7778004
-1.3876316
-1.3601159
-1.8190425
-1.9469973
-2.3610513
-0.90243058
-0.31615433
-2.1994517
-1.6592466
-1.2687204
-1.5554392
-1.297922
-1.6979651
-1.3835679
-1.315172
-1.0200782
-2.2694044
-1.5649413
-1.6477456
-1.2482179
-1.5326644
-1.6682718
-0.99436614
-2.1831133
-0.77815941
-1.7638706
-0.91061057
0.06610407
-2.2596478
-1.0351662
-2.0114097
-1.2796942
-1.1253258
-1.6960219
-1.4454573
-1.8123399
-0.75396165
-2.0712019
-1.764263
-0.82736481
-2.1932501
-1.6218792
-1.2914394
-1.3653675
-1.6128928
-0.98637957
-1.7267173
-1.4655338
-1.1348714
-0.88544651
-1.2822657
-0.96352633
-1.5887194
-0.54351175
-1.0671896
-2.6023734
-1.8937978
-1.0551952
-1.2859891
-1.0909459
-1.7061405
-1.2691372
-1.7350565
-1.8190366
-1.2850765
-1.7386598
-2.2855197
-1.5126391
-1.3317327
-1.9231021
-0.9817544
-1.4970982
-1.7040582
-1.525706
-0.46715531
-2.3321781
-2.1168636
-1.02206
-1.504967
-0.89081062
-1.4339434
-2.4302383
-1.2165669
-2.1615408
-1.6152806
-2.5341018
-2.256224
-0.40630856
0.19338235
-2.2322442
-1.3847422
-1.6284385
-1.1657808
-1.3552158
-0.86307418
0.17910735
-1.4159993
-1.9217741
-1.5876355
-0.93022234
-1.1893743
-0.35217312
-1.0183127
-0.98099601
-2.9320646
-1.655471
-1.7215238
-1.5053921
-1.7487343
-1.0194957
-2.3357309
-0.65956718
-2.0611601
-1.5203222
-1.3361849
-0.91828122
-0.60278094
-1.0262365
-2.1305115
-1.3778972
-1.4254543
-1.6626354
-2.2041665
-1.2336072
-1.9286839
-1.5447495
-2.1578188
-0.387726
-1.0519514
-1.3699955
-1.2299606
-0.69253106
-0.94610071
-1.3216569
-1.0672588
-1.4721787
-1.2488504
-0.90461038
-1.3499229
-0.55385322
-1.7738763
-2.3199727
-0.99454294
-0.85503928
-2.0548073
-0.89748503
-1.565518
-1.4304994
-0.26087497
-0.90637519
-1.5813168
-0.93103459
-0.96805348
-1.6312482
-1.3088604
-1.2994454
-1.9691783
-0.85270623
-1.0869602
-0.71362185
-2.0614305
-2.0454562
-0.95158583
-0.88692214
-1.9333228
-1.8781079
-1.3235186
-1.8939823
-1.5311087
-2.1433243
-1.5551051
-1.2287789
-1.8797591
-1.8041333
-1.7829038
-0.91381509
-1.9809672
-1.1228125
-1.5497379
-1.8549246
-1.6816656
-1.7349577
-2.1044557
-1.2401109
-1.6681385
-1.2749
-1.5176734
-0.87970216
-2.1059767
-1.7827692
-0.74843288
-1.7898905
-0.49012923
-2.0221532
-1.4643478
-1.7391428
-1.8097902
-1.6949803
-1.6169015
-1.0803287
-1.4173394
-1.6332715
-1.176554
-1.8718895
-1.8062419
-1.8856805
-1.503442
-0.81198672
-1.8213273
-1.058969
-1.7418844
-1.3277863
0.7939236
-1.0926377
-1.3653402
-2.0313336
-1.5695813
-0.77550921
-1.8449546
-1.8183511
-1.6641942
-0.83028014
-0.94104106
-1.4197289
-2.131849
-1.6528536
-1.9300033
0.013910794
-0.93685038
0.45840849
-0.76763285
-1.0586333
-1.7772476
-1.2051134
-2.1318113
-1.4811428
-1.2776733
-2.0750017
-1.590627
-1.7244039
-1.9037661
-1.0193238
-2.288244
-1.0438215
-1.4604087
-2.0562761
-1.7740965
-1.939724
-1.4578252
-2.1457396
-1.314858
-1.9324553
-1.1352079
-1.8291351
-0.69859372
-1.4973708
-2.0854118
-1.9792179
-0.98483327
-1.5107075
-0.94065182
-1.7455329
-1.6549262
-1.7028611
-1.1139999
-0.7118845
-1.1050405
-1.1298574
-1.4080708
-0.93079768
-1.5800627
-0.97705709
-1.6726314
-1.3622508
-1.366911
-0.77065237
-1.7991555
-1.5656034
-1.427059
-0.99041659
-2.2924336
-0.69796491
-1.0208722
-1.3804708
-1.2467148
-1.8087164
-2.2035563
-1.3193886
-1.0990309
-0.56889514
-1.7486328
-1.7517023
-1.8047193
-1.5842479
-2.0189494
-1.7006015
-2.1587767
-2.4874876
-1.5396511
-0.83966294
-2.5555166
-2.7698502
-0.86446658
-0.69502637
-1.367776
1.7642235
0.17734939
-3.071804
-1.2603902
-0.73789848
-1.1715153
-1.083663
-2.0923959
-1.4991285
-0.92635184
-1.6215874
-1.2511826
-1.9134294
-1.8951327
-1.8641656
-1.074766
0.066267338
-0.55989391
-0.88007156
-2.19738
-1.5522648
-0.97928439
-1.5558086
-0.79883991
-1.8791645
-1.13552
-1.5165253
-2.0683197
-0.40353362
-2.0082842
-0.99004018
-1.3370416
-1.6086094
-1.5562029
-0.9852617
-2.075241
-1.8682976
-1.1902236
-0.60214446
-0.81603514
-1.1856692
-1.3515175
-1.3736569
-1.8891636
-1.2524652
-2.1367426
-1.4626362
-2.162326
-0.67983657
-2.1018162
-1.79753
-1.563895
-1.9825041
-1.1852483
-0.95409579
-2.0380523
-2.4752914
-2.2152365
-1.2609703
-2.1240379
-1.12677
-1.3134114
-1.2544724
-2.6022846
-1.6172412
-2.4033512
-1.0081643
-1.9128717
-0.65833784
-0.530418
-0.53498241
-0.35740428
-0.36098973
0.84660901
-0.80411748
-1.2745514
-0.41950726
-0.025390866
-2.0320888
-0.82590572
-1.0177901
-1.2786465
-0.53829837
-1.5907757
-1.2752987
-1.7208454
-1.6597685
-1.6431726
-1.9949545
-0.80616601
-1.5365044
-0.65206106
0.002871193
-2.1176718
-1.4154891
-0.91070141
-0.22450601
0.47224535
0.94262212
0.56520278
-1.0794595
0.34249986
0.031134067
1.8508436
0.2582612
0.21918747
-0.48034672
-0.62984281
-0.035993952
-0.90684072
-0.83092685
-0.33028205
-2.7397096
-0.75159417
-1.3188968
-0.63036931
-2.3019892
0.53504888
-1.1711652
-0.90667884
-1.7626031
-1.2811268
-1.8154792
-1.3537544
-1.0136649
-0.62388954
-1.0539079
-1.6915862
-0.51418859
-1.9248825
-1.1006403
-1.0090392
-0.73542656
-0.77284705
-1.611124
-2.1169233
-1.6897923
-2.0132275
-1.4953188
-1.0915004
-1.581215
-1.1114287
-1.113084
-1.3522914
-3.1918464
0.29013211
-2.8234837
-0.62168116
-1.6815857
-1.6244516
-0.83862175
-1.1532692
-0.92211141
-1.5589859
1.2723375
-1.7686411
-1.3496394
-2.1960072
-2.2137454
-1.315807
-1.069379
-1.5958738
-0.24215057
-0.17980525
-0.92722677
-0.051794472
-0.18985268
0.1634068
-1.82178
-0.005942453
-1.4538826
1.0979222
-0.97799235
-1.4525708
0.15515177
-1.6115499
-2.4476213
-1.4663997
-0.81996172
-0.85677824
-0.90665475
-2.7562477
-1.1867796
-1.4143599
-1.4729158
-1.6075334
-1.1658829
-0.75165627
-0.77033485
-1.4584848
-1.7204877
-1.270461
-1.2155973
-1.6268287
-1.2502003
-1.5265976
-1.3023602
-1.6076905
-1.7420669
-1.5286927
-0.50327215
-1.4694099
-0.871842
-1.6296978
-1.7384976
-3.0828372
-1.1574084
-1.7881349
-0.90033781
-2.021461
-1.6902192
-1.7281983
-1.2244554
-0.82339631
-0.61074719
-1.7976431
-0.72899045
-1.6231794
-1.8167476
-1.0429039
-1.4582531
-1.5571056
-2.1799924
-1.6093011
-3.2729995
0.40834549
-0.81291558
-2.001422
-1.0842401
-1.1093875
-1.6836978
-1.6970163
-1.7638689
-2.0978789
-1.2694161
-0.66564028
-1.7946442
-0.99889916
-0.74483568
-1.6327416
-1.3922133
-0.70018643
-1.4929226
-1.1193919
-1.626187
-1.8191564
-1.6175354
-1.4591663
-1.0704727
-1.3065006
-1.3441365
-2.2267115
-1.8573195
-1.5494933
-0.93616829
-0.89199963
-1.3845174
-0.97558215
-2.3048759
-1.3186799
-1.0588729
-1.4747926
-1.2752925
-1.4341697
-1.3814593
-1.9464857
-2.1066435
-1.8110041
-2.0245106
-1.5391438
-1.3728708
-1.748843
-2.0805776
-2.1373028
-1.8503006
-2.4970182
-0.48483104
-1.667317
-1.8860799
-1.8998261
-1.4950845
-0.83439183
-1.9613666
-2.2730842
-1.1379343
-0.8752468
-1.6869228
-0.40148435
-1.4712011
-1.1853417
-1.1264536
-2.2092536
-2.2254754
-1.7329331
-1.844744
-1.4644011
-0.64865825
-2.3610868
-2.1134592
-1.9990028
-1.3505275
-0.44994333
-1.0662486
-1.9921984
-1.4741429
-1.2047975
-2.5081778
-1.3371406
-1.8262461
-2.141455
-0.076710759
-0.43137271
-0.41116587
-0.8734973
-1.0986142
-1.6789236
-1.11424
-2.1824494
-1.7104997
-1.298729
-2.125351
-1.504082
-1.095659
-1.6067744
-0.57644596
-2.2764284
-2.0001666
-1.8762135
-1.7934779
-2.3873987
-1.1078563
-0.99440066
-0.79029855
-2.3623839
-0.94207057
-1.0122756
-1.489348
-1.6849152
-1.3827616
-1.5848923
-1.4346722
-1.2000581
-1.7202665
-2.213718
-1.1060241
-2.6402615
-1.2446962
-0.52890587
-0.91004294
-1.2047007
-1.6223261
-1.7496674
0.84962756
-1.9279993
-1.4857688
-0.95949754
-1.8607956
-2.8630281
-1.749144
-1.0181116
-1.8781759
-2.2839042
-0.38892972
-2.212889
-0.4403381
-1.4756785
-2.0478709
-1.6240776
-2.5432087
-2.1605443
-1.6259057
-2.5625453
-2.1026185
-1.4012074
-2.1055883
-0.94515267
-0.56614837
-1.1896234
-0.9662684
-0.85646473
-1.8905366
-1.5919841
-0.95377423
-0.92723732
-1.2780972
-0.81079324
-1.7583334
-1.9528528
-1.0937422
-1.4748733
0.24738222
-1.3177905
-1.6179189
-1.601263
-0.97653788
-1.0868532
-0.92587089
-1.7470889
-0.45371466
-1.942406
-1.5029935
-1.0137213
-1.6263448
-1.0410127
-1.0746465
-1.6950518
-0.88444295
-1.6661712
-1.7046084
-1.8758896
-1.0802269
-0.85073795
-1.2929098
-0.12118919
-1.9331393
-1.0775787
-1.7273739
-1.2610499
-1.3511945
-1.9236013
-0.7284214
-0.89242736
-0.2314381
-2.193471
-1.2015973
-1.7687808
-0.75455696
-0.83979657
-1.1665993
-1.1226854
-1.8287843
-1.459873
-0.98279912
-1.6717551
-0.85033883
-1.0393716
-1.4338723
0.19006133
-1.3299531
-1.5470131
-1.9095004
-0.92875337
-1.8694142
-1.5215361
-1.8092165
-1.1129586
-1.4289697
-0.49040204
-1.0152341
-1.3308369
-0.80724751
-0.9679969
-1.8816955
-1.503018
-1.17295
-1.8427137
-1.5642021
-1.3061539
-1.1993477
-0.59747038
-1.7266907
-0.78007226
-1.8262214
-1.0947796
-1.584104
-0.78430423
-1.5883353
-2.0731231
-0.038089923
-0.88819606
-1.0932557
-0.91885994
-1.9768354
-1.1571468
-1.3289701
-1.4679824
-1.8285633
-1.941727
-1.9035267
-1.4479674
-1.5619067
-2.0260829
-1.1131539
-1.1173675
-1.2668874
-1.8965916
-1.3146112
-1.5337138
-1.9611562
-2.4217105
-1.9910624
-2.3494809
-1.0123373
-2.0808097
-1.7184819
-0.016559471
-1.7221772
-1.1667821
-1.8957636
-1.8692153
-2.3435403
-0.42777344
-1.0179161
-0.39922809
-0.94627883
-1.2588527
-1.3647717
-1.5474862
-1.4873781
-2.4375445
-2.0389446
-0.54343907
-2.4811092
-1.6802564
-2.004004
-0.53971629
-1.6272872
-1.9606657
-2.4414259
-1.1759084
-0.80298603
-2.5631099
-1.8682794
-1.2110026
-2.0574819
-2.5688222
-2.239501
-2.3990995
-1.0941604
-1.9715408
-2.0778342
-0.87743345
-0.25856635
-1.113781
-0.081837126
-1.2904619
-2.026328
-1.8085248
-1.4060845
-2.2747788
-1.0220677
-1.9325945
-0.99965787
-1.9440589
-0.51884232
-1.1537184
-1.1764207
-0.94098017
-2.4318515
-2.1096405
-1.765434
-0.62013486
0.010309793
-2.1069898
-2.2692218
-2.1676964
-1.3184053
-0.22190583
-2.2552736
-1.3968219
-2.6334213
-1.6036195
-2.2093451
-1.6629914
-1.6669421
-1.9181275
-2.5600112
-2.3254121
-1.2820724
-1.9968454
-2.1896541
-0.91573453
-2.365328
-2.5013752
-2.3012145
-1.4382281
-0.90954979
-2.4407022
-1.7629872
-1.5967383
-2.0800313
-2.117332
-2.0970755
-0.87175123
-1.4037329
-1.2600596
-1.9536669
-0.87056924
-1.484658
-2.1273645
-2.6384976
-2.3246871
-1.6098408
-1.448949
-2.1719134
-1.5149613
-1.5226027
-1.9899354
-1.6634066
-1.3454447
-0.73728871
-1.1996041
-2.2918532
-1.5477825
-1.6180946
-0.85877701
-1.2536298
-0.41150833
-0.92400765
-2.412959
-1.6429941
-1.4064482
-1.6698623
-1.2410554
-1.2822445
-1.0283204
-2.3653428
-2.2576841
-0.88016029
-1.8496775
-2.1919121
-1.924347
-1.923463
-1.2412421
-1.6855873
-1.9028287
-2.9965645
-1.5991742
-0.94309295
-0.74238193
-1.9706909
-2.0266108
-1.3684524
-0.53022467
-1.004471
-1.6705178
-1.9967806
-0.884493
-0.97376934
-1.3259829
-1.8390184
-0.98114538
-1.9668155
-1.0479699
-1.5594343
-0.9184605
-0.90773685
-1.4469492
-1.0949595
-1.5146125
-0.86263832
-0.85442803
-1.474156
-0.51110322
-2.2400747
-1.4903514
-0.97942267
-1.4840349
-1.566415
-1.987445
-2.0904456
-0.95239988
-0.93413805
-1.7840413
-0.80185707
-1.6937404
-2.107202
-0.84625417
-1.480573
-1.0524466
-1.0967213
-1.3048594
-1.2274261
-1.3260544
-0.9709173
-0.97482651
-1.3900335
-1.6225677
-0.88424255
-1.9015033
-1.5937335
-1.0115948
-1.7250767
-1.5525564
-1.1646317
-1.2839512
-1.0223489
-2.3393103
-1.9999991
-1.6727966
-0.48136615
-1.4786742
-1.9680571
-2.0151368
-1.3127722
-1.5505562
-1.4783203
-1.8518268
-1.4266114
-1.2041691
-1.0947139
-1.0535711
-1.5052943
-1.4515654
-1.6520666
-1.0194826
-1.957944
-1.1413953
-1.7821252
-1.3064757
-1.0463292
-1.5299472
-1.5511352
-0.86576823
-1.3283891
-2.3087047
-0.78722976
-0.95427681
-0.86824532
-1.0657479
-1.3078501
-1.7479617
-2.2704644
-1.3769165
-1.0674059
-1.2359052
-1.1173433
-1.3302469
-0.92543146
-1.6493236
-1.3553728
-2.1608028
-1.4836813
-1.0847321
-0.8566753
-1.325424
-0.9234896
-0.97883796
-1.095293
-0.93511833
-1.0591287
-1.3173224
-1.3623404
0.083434835
-1.5999867
-1.7378749
-1.45415
-1.2675465
-0.42909846
-1.5950472
-1.3358137
-1.2291506
-1.4522045
-1.2748621
-1.0032092
-0.8586586
-1.411767
-1.2647411
-0.90133437
-0.96342921
-1.0213972
-1.1463951
-1.4895211
-1.1900927
-0.77421981
-1.0970683
-0.96165116
-0.82569148
-1.017934
-0.93200692
-1.1379643
-1.3750011
-1.6157298
-1.3530914
-1.0884075
-1.8735262
-0.89797351
-0.57516391
-1.2832935
-0.70761583
-1.7311327
-1.7377655
-0.65909073
-1.4388405
-1.6131832
-1.6841439
-0.91230699
-1.2561149
-1.9732875
-1.3798844
-1.0487724
0.020794627
-1.2479477
-0.912506
-0.91597037
-1.8270697
-0.43681747
-0.90633796
-1.2719045
-1.3408175
-0.41443007
-1.4720539
-1.7660579
-1.1393885
-1.574159
-1.5889358
-1.7046461
-1.648313
-0.78179384
-1.8448214
-0.88784998
-1.3792935
-1.3895729
-0.8588758
-1.7742627
-1.5432531
-0.96482122
-1.7992471
-1.4172956
-1.263188
-1.4014019
-1.2687452
-2.132769
-0.80575373
-1.2035011
-1.8384033
-0.82318316
-1.2358657
-1.2312523
-1.3147653
0.36280326
-0.75384805
-2.2712903
-2.0262275
-0.9704414
-1.385086
-2.297823
-1.3179137
-1.8833466
-1.9558761
-1.9545649
-0.51117737
-2.3590729
-1.8422574
-1.4881608
-1.5348376
-1.6347596
-1.6251321
-0.45604772
-0.60460977
-1.9328341
-1.332878
-0.94974612
-1.4300621
-0.93530006
-1.6589297
-1.6493804
-1.2598361
-1.750256
-1.8883122
-0.76291032
-1.4844024
-1.72191
-0.11911707
-1.7863734
-1.5190351
-1.4192252
-1.7648606
-1.2638152
-0.91775252
-1.4906811
-1.355643
-1.7336538
-1.3402159
-1.4940975
-0.90930172
-1.6156717
-0.86513783
-1.7501606
-1.5930253
-0.92985164
-1.3641265
-1.5338743
-1.4037418
-0.92615107
-1.6387923
-1.4069074
-0.97955493
-1.4502861
-1.3620071
-1.6888281
-1.4588226
-1.6576154
-0.51584998
-1.594404
-1.9289376
-0.46777182
-1.3501355
-1.7065757
-1.3869708
0.15189483
0.39669522
-0.40390554
-1.335995
-1.4416087
-1.4286376
-1.421482
0.18285669
-1.4434865
-1.6036578
-1.5368664
-1.1882725
-1.5073451
-1.1317442
-1.3339093
-1.3423846
-1.940152
-1.7198549
-1.4527924
-0.8839365
-0.40616398
-1.0268226
-1.3124526
-0.66396237
-1.1393
-1.1656533
-0.84991185
-1.521927
-1.3561953
-0.71197032
-1.3030442
-0.74533723
-1.4265045
-1.7083127
-1.4312687
-1.3611095
-0.95628922
-1.1467518
-1.2654625
-0.74350493
-1.1541197
-0.59674657
-0.66027955
-1.4121752
-1.959363
-1.7621695
-1.8048032
-1.3423158
-1.0006024
-1.632112
-1.3028487
-0.63329062
-1.0789863
-0.86833383
-1.112598
-0.84563661
-1.202122
-1.2388854
-1.3893216
-1.2506384
-0.91931727
-1.2954701
-1.2529573
-0.98611987
-1.7030653
-1.5326501
0.030640288
0.099995073
0.26450489
-1.165418
-1.2065632
-0.89388589
-1.0667921
-1.288693
-0.86706099
-1.337516
-2.0767758
-0.89975157
-1.7136602
-1.257252
-1.597071
-0.76647365
-1.4238138
-0.9335757
-1.588792
-1.5827217
-0.77469261
-1.254223
-0.7413533
-0.75376081
0.26146962
-0.79799912
-1.3297287
-0.96342279
-1.2834163
-1.0099231
-0.96014176
-0.75400935
-0.72835293
-1.6854031
-0.96549221
-1.5782338
-0.85169478
-1.1768285
-1.7206511
-1.8216557
-1.0300417
-0.88281538
-1.4605749
-1.8578634
-1.2533834
-1.3186529
-1.4149222
-0.73568916
-1.2119707
-0.9130159
-0.82066355
-1.4466854
-2.0302042
-0.24781534
-0.9139979
-1.1019239
-0.80296272
-0.87527471
-1.2437996
-0.67467004
-1.5450882
-1.0915983
-1.2631397
-1.1681373
-0.25812649
-1.5564338
-1.5126347
-1.4466808
-0.69637542
-1.4749388
-0.64915807
-1.6092808
-0.99789668
-1.2777583
-1.5984141
-1.5780825
-1.0954965
-1.3946501
-0.7417702
-1.1817855
-1.2318122
-1.528201
-1.6520405
-0.43845806
-1.3779523
-1.7428497
-1.7794735
-1.7586352
-0.82005447
-1.0666205
-0.57102067
-0.57585918
-1.4697412
-0.55504383
-0.60042863
-1.3657094
-1.3384494
-1.3694861
-1.7792019
-1.4097856
-0.39630598
-1.7237626
-0.70580297
-0.74071492
-1.5833878
-1.6767631
-1.4572811
-1.5195805
-1.531859
-1.143567
-1.410932
-0.32413328
-0.19352353
-0.8263778
-0.43561401
-1.4913355
-1.0016229
-0.95766907
-0.84104421
1.5929928
-1.7687583
-0.21399014
-0.23893666
-0.30568013
-0.0771493
-1.5928683
-0.74269482
-1.8043334
-1.6988657
-1.1438976
-1.4875871
-1.3804219
-1.2545385
-1.0711371
-1.5232088
-2.052664
-1.5010717
-0.79015404
-1.5016035
-1.691891
-1.2174972
-2.2545807
-1.2160235
-1.4848181
-1.5570311
-1.5014748
-1.2289521
-0.71752242
-1.719229
-1.2074999
-1.5027609
-1.5741451
-1.7538699
-0.78519684
-1.5282893
-1.1504224
-1.0393934
-1.459788
-0.93517462
-1.1566785
-1.6863165
-1.5443492
-0.78945328
-1.2531651
-1.1967896
-1.1447286
-0.23625915
-2.1584794
0.31239862
-1.4393328
-0.86221221
-1.1350055
-2.3253533
-1.517486
-0.83494959
-0.46982799
-0.8096946
-1.6035146
-1.0357482
-1.9549117
-1.2182104
-2.0421168
-0.53030131
-1.5922328
-1.1511448
-1.7284583
-1.6916572
-1.0418188
-1.8657695
-2.1886679
-2.0912231
-1.0885049
-1.5828318
-1.0998495
-1.6503151
-0.7288234
-1.0620325
-1.6776387
-1.3068044
-1.7482745
-1.2295192
-0.74237958
-1.1837513
-0.88710156
-1.1269916
-1.3485202
-1.4559171
-1.2990745
-1.4404877
-1.5638852
-2.1317935
-1.0806358
-1.3619918
-1.4464132
-2.2399061
-0.72959815
-2.6063945
-1.1309429
-1.5172198
-1.0438627
-1.3930032
-1.1665954
-1.1188865
-1.675367
-1.1049513
-1.5064942
-1.7130554
-0.4436122
-2.562727
-0.7234982
-0.94835228
-1.7901487
-1.0005007
-2.9240897
-1.7381858
-2.1655066
-2.4700602
-0.80091379
-1.351204
-1.9405119
-1.1574104
-3.1129745
-1.9197087
-1.464311
-1.5337673
-1.3631747
-1.7114922
-1.441526
-2.5728547
-1.9489839
-1.0207437
-1.2440087
-1.5584434
-1.8819368
-0.79769202
-1.7020452
-1.134743
-1.8504194
-1.4958221
-2.3645814
-1.8876236
-2.892961
-1.5772288
-0.84566263
-2.3112644
-0.91626244
-0.036639035
-0.66577552
-2.572737
-0.89790081
-2.6207798
-1.6038232
-1.1403395
-0.89010276
-0.64623048
-1.3085271
-0.53813017
-1.461841
-0.97604682
-0.64536258
-1.3743215
-0.73383857
