
-4.3497511
-4.5065789
-4.5840949
-4.3188235
-3.9732924
-4.4082752
-4.5896691
-4.5074621
-4.7046566
-2.8536712
-4.5594833
-4.3262444
-4.3424462
-2.0588691
-4.384961
-4.2181222
-3.8986873
-3.8751634
-3.9749087
-1.2864359
-4.2282265
-3.3785997
-4.1693744
-3.5106386
-4.2827374
-2.8466725
-3.9477131
-2.0132361
-4.2264821
-4.0645668
-0.3727249
-1.4005536
-4.2473509
-2.4230953
-3.2562893
-4.6180827
-2.8930469
-3.5100354
-4.530522
-4.2293972
-2.9888945
-3.8884577
-3.1334115
-4.941625
-4.5457704
-3.6053822
-4.2326604
-4.6219562
-3.4192147
-3.3096623
-4.681
-4.3905039
-4.170565
-3.7655611
-4.3052777
-3.838038
-4.4432079
-4.1467223
-4.3527538
-4.2359019
-3.3544479
-4.6731428
-4.3576917
-5.0585556
-4.5238994
-3.6596592
-4.3931018
-3.6262905
-3.9718354
-4.4530761
-3.5733069
-4.468704
-2.8176618
-2.8361512
-4.636199
-3.0169927
-3.0071891
-4.4350776
-4.3988257
-4.9466324
-3.3253855
-3.9215402
-4.0145795
-3.7213653
-2.4543811
-3.7616875
-4.6256799
-4.1000354
-4.5612531
-4.2989502
-4.3486107
-2.2616833
-4.3552855
-4.1829218
-3.998711
-3.6584573
-4.4406234
-2.7744605
-3.8776433
-4.2245973
-4.7460683
-4.4468196
-3.9561864
-4.5017385
-4.8724673
-4.2890852
-3.8996263
-3.9555691
-4.7755281
-4.0024156
-4.9003468
-5.0607743
-4.6031407
-4.3054731
-4.6825033
-2.9788502
-2.9527452
-2.0207301
-4.5374767
-4.1343763
-5.0567362
-1.4632548
-4.5263968
-4.214627
-2.9852164
-4.4199041
-4.3616932
-4.4047218
-3.0425257
-4.3164448
-2.50329
-3.6594716
-3.9753085
-4.4974587
-4.0056921
-4.2699354
-3.3795527
-4.5935402
-2.6394317
-3.0250585
-4.6028185
-4.4763645
-3.4061043
-4.44321
-3.5563431
-4.1295203
-3.6222767
-3.3705296
-4.5346976
-4.2548047
-2.788717
-4.4725059
-4.2504255
-4.5993666
-4.3869483
-2.8829011
-3.9910251
-4.7008633
-4.0328949
-4.2827144
-4.465354
-4.3086386
-3.9934167
-3.7257048
-3.6756853
-4.0412007
-4.2344632
-4.6117152
-4.4643606
-3.0528656
-4.0888284
-3.2880717
-4.2169369
-4.1032203
-3.3456046
-4.7045636
-3.8353443
-4.3537706
-5.0099138
-4.2624905
-4.2805365
-3.1809067
-3.6064891
-4.2270198
-3.5757981
-4.5190457
-4.3376817
-3.6985959
-3.2897478
-3.9577832
-3.8877375
-1.8286987
-4.373803
-4.3521499
-4.0153742
-4.3864657
-2.7886108
-4.8674039
-4.1292885
-4.3498694
-4.4881596
-2.9871087
-4.3276933
-4.175852
-4.3742827
-4.1026971
-4.6015685
-3.8836302
-2.5525474
-4.2400223
-4.6836554
-4.358644
-4.1902669
-3.9638857
-3.8814057
-3.5114902
-3.7999193
-4.4254032
-4.4203639
-2.9398912
-4.3942541
-4.1983337
-4.5615473
-4.2770873
-4.2148297
-4.1028768
-4.2215662
-4.4804406
-2.7562986
-4.3276995
-4.5801772
-4.3961021
-2.9274092
-4.7026004
-3.3856619
-3.5987186
-4.730997
-3.8586636
-4.4802127
-4.4078868
-4.3891793
-3.803962
-4.4033962
-2.820353
-3.9055688
-4.0917426
-3.9683693
-4.1809692
-3.8318442
-4.1712892
-4.6260688
-4.2057911
-4.6590411
-3.8344244
-4.2170619
-4.2817411
-2.7636675
-4.1976707
-4.1395073
-4.3173232
-4.4586387
-4.3765656
-4.1127153
-4.6015272
-3.0776239
-3.8609486
-4.2225412
-4.1135612
-4.3309668
-2.1473246
-3.8337496
-3.7367837
-4.636541
-4.4552014
-4.3909637
-3.1908371
-3.8505366
-3.3909951
-4.3934343
-1.5993281
-3.2714982
-4.7337286
-3.5166653
-5.0024694
-2.9883076
-4.3063124
-4.6700723
-1.7343159
-4.5848154
-3.7675931
-3.2095621
-3.3507061
-1.6050845
-0.63597815
-1.4156135
-1.3965429
-0.62797378
-2.2199991
-2.9035809
-2.7825272
0.21381208
-2.8885771
-1.8954179
-2.3623907
-2.6077708
-2.4949837
-2.2751287
-2.95628
-1.8787144
-2.5890477
-2.4211827
-2.1436405
-1.922171
-2.2245762
-1.1618591
-1.5851171
-2.3319692
-1.9075847
-1.1320251
-1.8532843
-2.7457884
-2.8752898
-1.6873751
-2.4398841
0.70786405
-2.3167521
-2.9640205
0.00871077
-2.1918003
-2.0011479
-2.494664
-1.5926913
-1.9022033
-3.186748
-1.0643913
-1.7648128
-1.9716599
-3.176228
-1.7496506
-3.0312269
-2.5157778
-2.2953263
-0.044627436
-1.0972249
-1.4490416
-1.3814298
-2.2630139
-1.9864926
-3.1254056
-2.2489319
-1.2991839
-2.6855688
-1.5083468
-3.1935256
-2.223199
-0.32920829
1.3334961
-3.1723561
-2.7602585
-1.6005544
-2.9693004
-2.1799202
-1.5293737
-1.9758771
0.21678822
-1.9179958
-2.9969881
-1.6993425
-1.6970188
-2.0590807
-0.93404218
-3.3094013
-2.1617187
-2.7345512
-1.6585458
-0.73214773
-2.7230482
-1.3643377
-2.2850104
-2.5419049
-0.67773037
-0.69508843
-2.1966563
-2.2419345
-1.1735649
-3.3719756
-2.9547865
-2.6443927
-0.84277538
-1.795227
-1.1240797
-2.135605
-2.5582381
-3.2721855
-2.3442643
-1.640794
-3.1225867
-2.6279342
-2.9101195
-2.7080856
-1.6664726
-0.43093903
-1.6647925
-1.4255904
-0.30049398
-2.6329394
-2.1802035
-3.4331371
-3.330188
0.35950506
-1.7711515
0.45535166
-2.6523458
-3.2930313
-2.2714362
-3.0341005
-2.9358537
-2.7245635
-1.5927683
-0.49906226
-2.9768169
-3.110479
-1.5548427
-0.58035785
-2.9078209
-1.9938865
-0.63014694
-2.1714777
-3.2025259
-1.3859214
-2.7326686
-1.8176351
-1.7849785
-2.0898321
-0.75115828
-0.45091597
-2.559749
-2.5733439
-3.3878477
-2.982942
-1.0021706
-1.8491645
-2.4386728
0.15699726
-2.4875734
-0.57787886
-0.29660549
-2.3815916
-2.8052499
-1.3713957
-2.6375165
-0.44106089
-0.23668763
-1.7070946
0.12416439
-2.5695939
-1.6663062
0.52314418
1.4230061
-2.7328955
-0.12525367
-2.117882
-2.1999623
-2.592205
-1.8308975
-0.176964
-2.0783144
-2.235202
-1.0494309
0.30210519
-1.7660436
-2.6549717
-1.376163
-1.5513857
-1.844683
-1.9146224
-1.4951759
0.61821839
-1.3640456
-3.2556778
-1.918178
-2.6702616
-2.2146748
-3.9048771
-1.4471155
-2.119781
-1.4719205
-2.8563209
-2.3649421
-2.268892
-2.4068289
-3.9753615
-2.1629093
-0.79729743
-2.8762145
-3.1701118
-3.3423924
-2.662829
-3.5985989
-3.5586694
-4.1410068
-4.2511874
-2.806989
-3.6340397
-4.3133515
-1.9398986
-3.7886491
-4.6570401
-4.4137446
-2.9051944
-4.1770493
-4.1424271
-4.4052391
-4.738661
-4.1211646
-4.6932184
-4.5283017
-4.5500725
-3.1896231
-2.6354304
-3.9745936
-4.5326232
-4.4468968
-4.0559476
-4.4447375
-3.5210069
-3.9658831
-3.6480437
-4.1737433
-4.5073871
-3.7303343
-4.5928576
-4.0798857
-4.6610379
-4.4093066
-4.1531553
-3.3246593
-3.5193164
-4.0495195
-3.9115387
-4.2351855
-4.6648937
-4.2014412
-4.6886002
-4.3323691
-4.1067028
-3.7705817
-1.5809501
-4.0239769
-2.9696955
-4.3366317
-4.503378
-4.3136787
-4.2794057
-4.2740979
-4.0361581
-4.2859278
-4.2285607
-4.0449718
-4.1161165
-4.4103124
-3.8322434
-4.7314737
-4.063688
-3.7600756
-2.516616
-2.2719022
-4.8367171
-4.4259267
-4.7056395
-1.8536548
-3.2468279
-4.3941583
-4.1786667
-4.6434988
-4.6342428
-5.0091808
-3.101728
-4.1615323
-3.5323797
-4.1642572
-4.1298965
-3.8318112
-4.8961377
-4.42483
-3.8598848
-3.7951231
-3.6869487
-4.1727499
-3.0029472
-4.5587263
-4.9085125
-4.056136
-3.6966189
-4.5925532
-4.1766255
-4.1653993
-4.2063227
-4.3984283
-3.891348
-4.5022782
-2.4431451
-4.3358357
-4.0694677
-3.9189327
-4.4994009
-3.5830735
-3.2601903
-4.0717028
-3.8018722
-2.1235306
-4.7869541
-4.4223793
-4.4892722
-4.4167268
-4.0745062
-4.2598494
-4.2178086
-4.1621025
-3.0168755
-4.481508
-2.4738887
-4.3781252
-4.5411553
-4.7141322
-4.1706221
-3.3967413
-4.7805823
-4.4146537
-4.2581304
-4.4043297
-4.4898931
-4.4021867
-4.5713051
-2.6943207
-3.5260788
-3.5793617
-4.4306971
-2.0103774
-3.9018727
-4.5101461
-4.2747943
-4.560691
-4.3418323
-4.1760724
-4.6706885
-3.3309343
-3.963395
-3.4485773
-4.2661423
-3.9903403
-4.1676885
-4.1992026
-4.0782262
-4.2984554
-4.3607501
-3.9305855
-4.1588384
-4.1465387
-4.0431903
-4.7069013
-3.7584497
-3.9335589
-4.014435
-4.3428784
-3.9237639
-3.9071691
-4.3685966
-3.7793901
-4.5432631
-4.3789226
-4.2613406
-4.1438738
-2.3940601
-4.3651318
-3.6776897
-3.0410395
-3.2689446
-2.152835
-2.2948707
-4.6974443
-4.5715142
-4.0119255
-4.6663383
-4.1543476
-3.9034972
-3.5633551
-2.7925421
-4.2882194
-4.2335861
-3.9948441
-3.9662889
-4.6167319
-3.993777
-4.5419863
-4.7253684
-4.6120193
-4.4049815
-3.8897776
-4.2086964
-5.1997731
-3.9332798
-4.4819077
-4.4346748
-3.8815171
-3.9775745
-3.5551545
-3.2117895
-4.3239179
-0.498485
-1.2256286
-4.3676515
-4.5748493
-3.6602345
-3.3742712
-1.7016162
-4.553855
-4.105839
-3.605257
-4.5882904
-4.1278331
-4.7757178
-1.8281844
-3.4370477
-4.4088029
-3.7054342
-3.9506445
-3.6975429
-4.35895
-3.0064774
-4.2143998
-4.4767229
-4.0718209
-4.1317308
-4.3336271
-4.2078189
-4.3310018
-2.0597185
-4.6991197
-3.3885323
-4.6724801
-3.5399979
-3.9404221
-4.6430571
-3.6861413
-3.228973
-4.1001885
-4.2634936
-4.4861333
-4.586147
-4.2027299
-3.8826464
-4.6722196
-3.8973439
-4.3392488
-2.7333686
-4.8841867
-1.1573121
-2.873941
-4.5395
-4.8398005
-4.0683528
-3.6118017
-4.4352122
-4.1635868
-4.0646077
-4.0081658
-4.4310873
-4.6222301
-5.250626
-3.6476471
-3.6300341
-3.7987204
-3.0225665
-3.9415288
-3.7102703
-5.0619905
-4.4056537
-3.9177205
-4.2751737
-4.805915
-4.6454402
-1.885214
-4.1042853
-4.3159845
-4.1929825
-4.5685931
-4.3790958
-3.1752875
-4.3236239
-3.8288413
-3.9443558
-4.9002155
-3.3900617
-4.0666433
-4.3536077
-4.4803162
-3.6125507
-2.5412606
-2.5136688
-4.2492499
-4.4251683
-3.630366
-4.135881
-3.6858328
-4.3596739
-0.87429987
-4.5475812
-4.2603433
-4.08627
-4.9471959
-4.2687415
-4.0897802
-3.6898802
-4.6995561
-4.6706213
-4.2868518
-4.4420889
-3.3600265
-3.7782309
-3.5168549
-3.5332008
-2.7862977
-3.8131836
-3.062244
-4.4168678
-2.8823429
-4.3515035
-4.1530764
-3.7872836
-4.2334764
-2.4051106
-4.40452
-4.4902601
-3.6572021
-4.2877567
-3.9237265
-3.1071897
-4.1653219
-4.4015015
-3.2938206
-4.5317595
-2.4763236
-3.2078558
-3.3978278
-4.7097928
-3.8674032
-3.173678
-4.7251208
-4.2388996
-3.228464
-4.4100667
-4.2912088
-4.6728684
-4.6472405
-3.7692826
-4.4240241
-2.274039
-3.1848975
-0.026785914
-4.0755135
-4.4354294
-3.3534609
-4.7507853
-4.3504316
-4.4318748
-3.6781593
-3.8821485
-3.6323184
-3.3443608
-4.0046169
-3.9825341
-4.2259613
-4.6571835
-2.0666114
-4.4966855
-4.0369455
-4.2947562
-4.2209008
-4.7835533
-3.5535545
-4.5515569
-3.8091137
-4.7199281
-4.5757854
-4.3305345
-4.1434849
-3.9034163
-3.7460275
-2.5909803
-4.2574167
-3.8120807
-4.178442
-4.3622545
-4.4098742
-4.0884293
-4.4793946
-4.6784436
-4.6503017
-1.4169231
-4.1857843
-2.8415405
-4.2945956
-4.2260168
-4.0626896
-4.3149596
-4.4717351
-4.9507896
-3.201215
-3.16019
-4.2031166
-4.322332
-4.1476951
-2.2784156
-4.7061539
-4.5128303
-4.8000646
-4.2419986
-4.5007432
-4.1306325
-4.1068203
-4.17116
-3.955691
-4.5440123
-4.15851
-3.6823416
-4.0399297
-4.2069201
-4.5777
-3.9942573
-4.3882953
-3.7149903
-4.2583963
-3.7561714
-4.2760811
-3.3929664
-4.1652556
-4.9687855
-4.2593228
-2.0449212
-3.8811381
-4.2550193
-4.4064735
-4.3634415
-3.7593623
-4.5476759
-4.451131
-2.9308696
-2.4012059
-3.4380451
-4.3441613
-4.2677001
-4.2144797
-4.1887903
-4.309011
-3.791
-4.5459419
-2.5499364
-4.0281318
-3.6603149
-3.916737
-4.5999441
-3.2805003
-3.5797572
-3.5514731
-4.1223966
-4.3465341
-4.0702229
-4.352539
-4.2334995
-4.9413967
-4.4034217
-4.1693349
-4.4756878
-4.0402174
-4.2123289
-3.0214259
-4.9308403
-4.2890405
-2.9911569
-3.5795596
-4.501166
-3.8878384
-4.1551917
-0.75955066
-3.3132722
-3.9551655
-4.0521989
-4.7217178
-4.4400767
-4.578529
-4.1863268
-4.2560863
-3.1410697
-5.0071673
-4.5996233
-2.1113755
-3.6543412
-4.2675506
-3.8308363
-3.7395056
-4.5294276
-4.386296
-4.1110334
-4.2317176
-5.1062638
-4.5947549
-4.4482892
-3.7811126
-3.4734368
-4.4206194
-3.0781313
-3.4368356
-3.6064923
-4.4934992
-4.715378
-2.8065118
-3.9358458
-3.686316
-2.948688
-3.7812531
-4.1910424
-4.9901871
-3.8464874
-4.6895812
-3.0915407
-4.3741299
-4.2448752
-4.206183
-3.3955279
-4.4705053
-4.3301203
-4.1795214
-3.7452672
-4.8967604
-4.0217843
-2.304053
-4.2742776
-4.1930523
-1.8834631
-1.7524699
-3.8709905
-3.7685786
-4.5018797
-3.7534565
-5.0016755
-4.8127921
-3.5125465
-3.1710537
-4.2903852
-3.9102337
-4.6379983
-3.2903966
-4.2783774
-2.9501626
-3.9664654
-4.6644754
-4.5488827
-4.4683241
-3.8443518
-3.6083244
-3.4885723
-3.5082112
-4.5708344
-3.956112
-3.9964459
-4.5234419
-3.7508767
-3.4618705
-3.5769786
-4.0944541
-2.5803091
-4.4126275
-4.6847306
-3.9355361
-3.8142201
-4.3049557
-4.175229
-4.3738637
-4.7439835
-4.0045316
-3.9931529
-3.078566
-4.3631187
-4.5276727
-3.505558
-3.8410838
-4.1375621
-4.6679973
-4.2966787
-3.8837808
-3.3307314
-3.8086859
-4.7134079
-3.7287736
-4.1650425
-4.2171074
-4.6136396
-4.377701
-4.1592533
-4.3908123
-4.6054005
-3.8796493
-4.9393856
-4.2615819
-4.147522
-4.2651058
-4.5202632
-3.7034783
-4.2328873
-2.5682949
-4.4275942
-4.4154107
-4.3445205
-3.5496471
-4.2875195
-4.1731926
-4.2907099
-4.0012271
-4.1946656
-4.5248722
-3.9544024
-4.1873053
-4.3150642
-4.6946206
-3.3377226
-3.6521506
-4.5160959
-4.2875574
-2.0069465
-3.4691667
-4.1316317
-3.6687266
-3.8671442
-4.6603386
-4.1550187
-3.1487453
-4.2284828
-3.716171
-2.7703735
-4.3076114
-4.1482109
-4.141231
-4.2565552
-4.4539844
-4.5421122
-4.5448638
-4.2530214
-4.1834754
-1.3603778
-2.3407806
-4.1834122
-4.5822347
-4.4140947
-4.3744598
-4.1358208
-4.9385469
-3.3238828
-4.0690305
-3.2962865
-4.3115076
-3.6977431
-2.5657902
-4.819013
-4.3541735
-4.6354732
-3.7559906
-3.8020867
-4.528795
-4.7232383
-4.1285495
-4.1483491
-4.1516097
-1.3598996
-4.1857735
-3.5688179
-3.7646586
-3.947406
-4.425429
-4.4947033
-3.9442451
-3.5324485
-3.6286294
-4.9785419
-4.5031296
-3.3756575
-4.0487186
-4.5108181
-3.2342912
-3.6918707
-2.5163767
-3.8896012
-3.3492861
-2.4684075
-3.8359789
-3.7084101
-3.8777125
-3.8923167
-4.4400648
-3.7194347
-4.4340661
-4.4586924
-4.5542976
-3.9903807
-3.0313744
-3.8058011
-3.0815218
-4.2326413
-5.3228758
-3.6002323
-4.1089069
-4.8076114
-4.277417
-4.4341754
-4.1790407
-4.1996318
-4.779278
-3.984435
-3.2168305
-4.4947129
-4.5976222
-2.5903462
-4.753663
-4.4414774
-4.5626133
-3.6712814
-4.8825063
-4.1988021
-2.9457719
-4.4738595
-4.1706049
-4.0053096
-2.7866668
-4.4365581
-3.9137614
-4.5658614
-4.4849409
-3.018378
-3.7530522
-4.8121042
-4.1866512
-4.1986826
-2.1578965
-3.8074101
-3.7214878
-4.4115513
-3.41071
-3.9658324
-4.3011596
-4.4255523
-2.621887
-4.2948395
-4.125881
-4.2039367
-3.3110446
-4.4198062
-1.6487275
-4.1124535
-4.2724211
-4.4411678
-2.8477283
-4.3647573
-4.4653646
-3.6470428
-4.0345922
-4.2187306
-4.3516393
-4.160204
-3.3883997
-3.3824735
-3.4323141
-4.0859065
-4.2379639
-4.4820421
-3.6732974
-4.5995604
-3.1552238
-4.2110634
-0.31383376
-4.2653416
-4.0861319
-4.2215495
-4.6045097
-4.8749546
-4.262999
-4.2683178
-4.3168722
-3.1658001
-3.316676
-4.3473411
-3.9795435
-2.8140086
-2.6523775
-4.1272847
-3.0204207
-4.2485017
-3.2599892
-4.1377411
-3.9428384
-4.4511639
-4.0653093
-3.7591636
-4.22171
-4.46167
-2.8193443
-4.2657792
-4.3562918
-4.3066947
-3.9847655
-1.9144527
-3.8757592
-3.6252402
-5.3247055
-3.832141
-4.4308081
-3.2407493
-4.1270607
-4.071951
-5.2786926
-3.3209323
-4.2119804
-4.2993661
-3.8625943
-4.545353
-4.3955058
-3.6014081
-4.1669575
-4.1892758
-3.5832558
-4.6110287
-3.798198
-3.921148
-3.9564746
-4.0497326
-4.2577648
-4.3135223
-4.4150806
-4.410051
-4.4891322
-4.7646264
-4.5807548
-4.7128421
-3.5917104
-4.0912756
-3.1653556
-4.5691984
-4.2742304
-4.1100067
-3.7544693
-3.9150359
-4.5637803
-4.0410343
-0.96246744
-4.01973
-3.6816265
-3.6448793
-3.5878044
-4.3632649
-4.9416793
-4.1721549
-3.1015999
-4.4509016
-4.0297098
-4.190551
-5.3560599
-4.2953268
-4.0387092
-3.5021148
-2.5197369
-3.9841909
-3.5047048
-2.8994375
-1.4287189
-3.5076934
-4.2491131
-4.6647857
-4.0677922
-3.4248578
-4.072469
-4.4327926
-4.2101541
-4.2157762
-4.2935227
-4.2364939
-4.495519
-2.2941248
-3.8825617
-3.5367375
-3.8410326
-2.7665321
-1.7097396
-4.599901
-4.304981
-4.697555
-2.2502088
-4.4362025
-4.4539512
-4.1323286
-3.5189068
-3.685131
-4.2061529
-3.3003973
-4.3504532
-4.2955694
-4.0661137
-4.3834794
-4.5898193
-4.4701834
-4.2768681
-2.8692963
-3.2884467
-4.4548998
-4.2615601
-4.8371814
-4.4122975
-3.9673677
-3.1940335
-4.3947331
-3.4088494
-4.5637072
-4.0692977
-3.6888954
-4.7291213
-4.5441225
-4.4032107
-4.4363736
-2.8989551
-3.7971201
-3.1471127
-4.4706339
-3.7475441
-2.2107671
-3.3245933
-4.4249388
-4.1276431
-4.7699575
-4.7463252
-4.1988044
-2.5970349
-0.66154496
-3.8089023
-4.6319983
-3.9074792
-4.4859867
-2.1826137
-3.6913222
-4.0629659
-4.3047572
-3.8299167
-3.9651073
-3.8825742
-3.7425743
-4.2440153
-4.8267863
-4.7691646
-4.3215966
-4.418568
-4.1968684
-2.6264892
-3.8681796
-3.9661046
-4.1539663
-2.8184411
-2.8789093
-4.7411821
-3.4935458
-4.2657751
-4.5581001
-4.4821725
-4.4433445
-3.8382957
-4.1772529
-2.2679608
-3.4510401
-4.0709539
-4.5693877
-5.1371707
-4.4762592
-4.0133644
-3.9483283
-4.9455342
-4.1731195
-3.5454371
-4.1340615
-1.9598643
-4.8905992
-4.5211701
-4.2977497
-4.5500947
-3.5688685
-4.5409267
-3.3687618
-4.342846
-4.0745415
-3.6147199
-2.7869799
-4.0010608
-4.2128213
-4.4304497
-4.9529896
-2.6571157
-4.254399
-2.7346121
-3.3497658
-4.1199357
-4.1915129
-2.9980556
-3.7229977
-4.0690151
-3.5129287
-4.5512119
-4.9723719
-2.4267628
-3.8615155
-5.032737
-4.3396373
-4.3647796
-3.4296299
-3.9794381
-4.4003577
-2.6889957
-4.0264944
-5.1441822
-3.459704
-1.0425079
-3.9300856
-4.0037836
-4.3699411
-4.3072706
-4.42373
-4.4875248
-4.7868251
-4.1054079
-4.2869897
-4.3611408
-4.3626874
-4.5928607
-2.1416927
-4.1948318
-4.1682921
-3.9786592
-4.1749986
-3.594544
-4.3802988
-3.1196829
-4.8993654
-3.1963861
-4.725705
-3.9462561
-4.6036151
-4.1247479
-4.1224991
-3.4619341
-3.212022
-4.5726484
-3.8067534
-4.2554092
-3.8197935
-4.2004416
-4.3633312
-2.3598137
-3.089339
-2.8264806
-2.7377778
-4.3152179
-4.4031899
-4.5624642
-4.4423892
-4.0364771
-4.0413373
-3.5202388
-3.9195651
-4.7266159
-4.6336219
-4.3130066
-3.5667121
-4.2769746
-3.856606
-3.3537834
-5.1365807
-4.1166749
-3.9315877
-4.2080126
-4.3595609
-3.0674987
-4.153241
-4.6378598
-4.4138316
-3.7929374
-4.5236449
-4.6440326
-4.758896
-3.3930034
-2.7782025
-3.6699468
-4.4615036
-4.1206412
-3.7703243
-4.4484068
-3.5628923
-4.3142768
-3.5158322
-3.0845442
-3.1204981
-3.1376639
-4.105003
-4.4437057
-4.0430577
-2.4391682
-3.626653
-3.6536286
-4.6984561
-4.3529362
-4.137519
-1.9249492
-3.0717067
-4.0466078
-4.2583273
-3.4651708
-4.1404331
-4.5297891
-4.2528141
-4.2710985
-2.0900589
-3.143235
-2.6519685
-4.0326626
-4.5751663
-3.2943411
-3.7011763
-3.8789517
-3.2232203
-4.3506207
-4.4068677
-4.4041286
-3.5928041
-4.430633
-4.1348014
-2.6803797
-4.5580745
-4.2878984
-4.3512906
-4.2534212
-3.5186014
-3.4593222
-4.7371019
-3.7469921
-2.4962496
-3.7350089
-4.1557439
-2.593494
-4.2167325
-3.6462074
-4.2926074
-2.7357143
-2.8472765
-2.7089289
-3.6717876
-4.4210328
-2.4515981
-4.1767867
-4.2093465
-4.0229118
-4.2292249
-4.4738208
-4.222555
-4.3171954
-4.7029447
-3.9978241
-4.3986297
-4.413954
-4.0340196
-4.4800286
-4.2735373
-4.3759383
-3.7705321
-4.2033312
-4.4236587
-4.2974005
-3.7556031
-3.9510028
-3.9519064
-3.8332914
-4.4484541
-4.1896724
-3.5355685
-4.1901082
-4.4849424
-4.5909376
-4.1274279
-3.4705945
-3.6602985
-3.9930861
-4.5207111
-4.4032012
-3.9962879
-4.5026475
-4.2719053
-1.6608939
-4.2881055
-2.5017845
-4.6167913
-4.5909211
-4.2390802
-4.2419315
-3.3454775
-4.0999253
-4.1543684
-4.1907527
-4.6371058
-4.1999922
-2.7485339
-4.5560267
-3.7718668
-4.0965632
-4.3049985
-3.8798663
-3.6198694
-4.084082
-3.5009454
-4.2334619
-3.812423
-4.4657945
-3.3484507
-4.1484427
-4.5672411
-4.4211148
-3.9540655
-3.5653214
-3.7817822
-4.4780209
-4.4324614
-2.9942807
-2.5124154
-4.2791351
-4.4735084
-4.5245383
-3.696929
-3.9324999
-3.836315
-4.0785749
-4.3638219
-4.9337094
-2.9132429
-2.9681589
-3.4551366
-4.1613526
-4.4836482
-4.9935894
-4.5936185
-4.3187784
-2.5128852
-3.8620135
-3.1703073
-4.8346311
-3.4390101
-3.9929762
-4.2849801
-4.3766928
-3.9115856
-3.9597919
-4.1025842
-4.3589073
-4.9255503
-4.3921049
-4.0598681
-3.750495
-3.4034816
-3.8114743
-4.0929343
-4.4789604
-4.673875
-4.4485807
-4.3558976
-4.0994379
-4.5020705
-3.774951
-3.8419543
-4.3765789
-4.3282048
-4.480106
-4.3668849
-4.1308918
-2.1267258
-4.0307342
-4.2289931
-3.8653767
-4.4004845
-4.1341511
-3.651288
-4.0653121
-4.5002013
-4.0213775
-3.6555887
-4.6015528
-3.5335456
-3.2965679
-4.2018277
-4.3244303
-4.1184524
-3.8570188
-4.7719986
-3.76591
-4.2824944
-4.3928745
-3.4032057
-2.9591312
-3.3253789
-5.091847
-4.3684052
-4.407883
-2.2368815
-4.4694149
-3.8059081
-4.9286078
-4.043059
-4.112434
-4.2024991
-3.0625304
-4.1244153
-4.2516982
-4.2837665
-4.2528582
-2.6875552
-3.278613
-3.2185173
-4.3566563
-3.0722495
-4.2287972
-4.2851703
-4.4653412
-3.6005257
-4.770824
-4.6485445
-3.9642578
-4.7804506
-4.0568604
-4.0070373
-4.0061167
-4.3543583
-4.264653
-3.1005689
-3.45518
-2.8592058
-4.2795524
-4.2120611
-3.13418
-4.2174822
-2.4352509
-4.528843
-4.9533992
-4.1351416
-4.3902529
-4.5545601
-4.5998295
-3.4124961
-4.4285545
-4.0300495
-4.1144941
-4.2205985
-3.7470322
-4.5632221
-2.8123237
-3.366287
-4.705454
-3.0478156
-4.3672346
-2.7046636
-3.1722554
-4.3982428
-2.4353093
-3.5533199
-4.2172733
-4.4269575
-2.6281756
-3.919967
-4.9092129
-3.9681123
-4.2810966
-4.3984718
-4.4515101
-5.3632414
-4.0696
-4.1953443
-4.0902879
-3.7695858
-2.8363388
-3.2410278
-3.4590113
-4.2246997
-4.5905544
-2.9063735
-0.91486722
-4.0333087
-5.026336
-3.5904519
-3.7076264
-4.1621342
-4.4205111
-4.0238887
-4.3288956
-3.9375373
-4.1055727
-4.8369927
-4.2093921
-4.5111118
-4.0494608
-3.6573735
-4.4908111
-4.1888305
-4.1759504
-4.4903317
-4.4846993
-4.0210146
-0.10337963
-3.4514176
-3.9196742
-4.3865352
-4.411331
-3.9495199
-3.9268341
-4.0735799
-4.3017363
-4.2475046
-3.8297254
-2.8612356
-3.9998489
-2.9139329
-4.4816878
-4.3339803
-4.1078369
-4.5946453
-2.7562572
-4.3330415
-4.2586979
-2.2883285
-3.8835825
-3.7885099
-4.2317954
-2.6874443
-4.6070255
-3.7924283
-3.941898
-3.4024618
-3.0758165
-4.4965534
-4.2298401
-4.4657015
-3.371555
-3.3711347
-3.1212506
-3.2282778
-3.3568228
-4.4718114
-4.1842563
-1.9115483
-2.9413804
-4.6114908
-4.191841
-3.8075052
-3.8207336
-3.7964769
-4.6324542
-4.4583492
-4.5026653
-3.4191493
-4.6601539
-2.2269837
-4.2590169
-3.9698791
-4.1652941
-4.2153753
-2.1129165
-2.4188669
-4.2139255
-4.4584532
-4.611428
-2.2716163
-3.1510359
-4.4857332
-2.8033772
-3.3105961
-4.9824309
-4.1336668
-3.7243974
-4.235385
-3.5586303
-1.1660573
-4.4649659
-4.7983383
-3.6276471
-4.7258321
-4.6220637
-3.2958666
-3.5861127
-4.6084471
-3.9509106
-4.5051329
-4.2210106
-4.1816668
-3.57943
-4.0514991
-4.5263335
-4.6488263
-4.4784405
-3.8937237
-3.7872985
-4.4832607
-4.8482871
-3.6295928
-2.9717632
-4.1268604
-4.2579763
-4.2189924
-1.7954276
-4.3824864
-2.0407862
-4.4962148
-3.9891633
-1.4328485
-4.1660627
-3.8263715
-4.2772071
-4.508115
-4.5513137
-3.226453
-2.0508204
-4.2805287
-4.2885992
-3.1617203
-3.1055486
-3.6029332
-2.6256274
-4.5562783
-4.0217103
-2.8339329
-4.096364
-4.0932866
-4.4700447
-0.49068275
-4.400226
-4.510396
-4.6662346
-4.6680587
-4.3358287
-4.2642007
-4.613352
-2.9394927
-3.9768775
-5.3264659
-4.0170237
-3.2601623
-3.9435017
-4.0496591
-3.7148284
-4.707495
-4.054482
-4.2295249
-3.7986409
-3.7625605
-4.164744
-4.5320006
-4.0109618
-4.3333471
-2.9781176
-4.0361864
-4.1332235
-4.3959241
-4.3127845
-4.8342699
-4.4799882
-3.9641685
-3.049592
-4.1669676
-4.4516147
-3.6896759
-4.3790598
-4.4225668
-2.5631117
-4.3763105
-4.3882207
-4.1596959
-4.2512197
-4.688854
-2.8615221
-3.874495
-2.6996596
-3.8858208
-4.0849888
-3.5835599
-3.715517
-3.4122551
-3.4302869
-3.8384889
-4.6216331
-4.5845462
-3.4242862
-4.7086754
-4.3304736
-4.2708338
-3.0740758
-3.6637162
-3.5534243
-4.1505601
-4.1359475
-3.4204537
-3.2062237
-4.1496238
-4.6564777
-4.2272026
-4.2293221
-4.1594151
-4.0274024
-4.3929671
-3.6536811
-4.2417549
-4.0773687
-4.3960145
-3.5973387
-5.0811433
-3.9254775
-3.5901638
-3.8293488
-3.7957717
-4.1918826
-4.4563088
-4.3089422
-3.8392228
-3.7975707
-3.9889138
-4.0215953
-4.8476972
-4.2030183
-4.249702
-3.9657294
-3.8979737
-2.9179543
-3.2004712
-4.3102607
-4.5474286
-3.8066155
-3.5614829
-3.3987729
-3.093336
-2.8925659
-4.4064036
-5.0212755
-4.6459955
-4.6850957
-4.1356393
-4.5159285
-4.4985208
-3.8621879
-3.9482904
-3.8965621
-4.4427144
-4.4936919
-4.3435603
-4.6923461
-4.9083889
-3.6295909
-4.3759149
-3.9025272
-2.9370275
-4.1740985
-4.1035469
-3.6322342
-4.6368762
-4.4263503
-3.3091914
-4.0253548
-4.5471764
-3.3681352
-4.3523807
-3.9237869
-3.9651454
-4.5083109
-5.0198421
-4.9324241
-4.4075379
-4.3345902
-4.6039255
-3.4896928
-4.408183
-4.2354752
-4.3690902
-4.2384319
-2.8459733
-4.2548888
-4.475964
-3.5637756
-3.777925
-4.4592266
-3.7509812
-3.6452646
-4.3154445
-1.7394736
-2.6496499
-4.0189757
-4.3894327
-4.5687397
-3.6416487
-4.4219663
-4.1691009
-3.0056483
-3.624093
-1.6485562
-4.7112644
-4.6731617
-3.5737055
-4.1290443
-3.4944477
-3.9779444
-3.9596191
-4.3368007
-3.399077
-3.2044722
-4.5090329
-4.1649855
-4.4655962
-4.9508137
-4.3836332
-4.5594319
-5.1145679
-4.1467404
-4.7728641
-4.7151014
-3.991122
-4.3155574
-1.9920527
-4.4791446
-4.3002712
-4.3689855
-3.930882
-4.4180317
-3.4100016
-4.5474396
-4.7687245
-4.2799592
-4.0670364
-3.6630131
-3.5461559
-4.9975144
-4.2894561
-3.8555857
-4.0087137
-4.0374011
-4.2273816
-1.9629878
-4.4561686
-4.4333214
-3.896695
-3.8496313
-3.273891
-3.763392
-4.1118721
-4.2182249
-2.8296015
-4.2883792
-4.045139
-4.4938943
-3.9712342
-4.6241964
-4.6279413
-3.9081116
-4.3812349
-4.2598433
-4.4629874
-4.4712827
-4.71606
-3.955742
-4.6544898
-4.8755345
-2.9188103
-4.2389793
-3.6597868
-2.752418
-4.3355835
-2.5113947
-3.930183
-3.8575004
-4.5620897
-4.468391
-4.3049122
-2.2173072
-4.522724
-2.0941731
-4.0181648
-5.0609442
-2.7932995
-4.5590216
-4.3035919
-3.0290305
-4.3729401
-4.6595641
-2.3234169
-3.7779515
-3.2631595
-4.7712561
-4.2167339
-4.436138
-4.2755807
-3.170917
-4.3787801
-3.7819334
-4.6431663
-4.3548147
-4.45251
-2.7084169
-4.4864947
-4.12159
-4.1715992
-4.3218593
-4.3002684
-3.601798
-4.2630449
-3.5223222
-4.4657423
-4.4355887
-2.7745496
-4.1547005
-3.6833285
-4.0201691
-4.4844281
-4.350601
-3.7428062
-3.9837201
-3.6626253
-4.414647
-4.6366593
-4.3266878
-4.0862975
-4.9741853
-2.0512948
-4.8924488
-4.3198593
-3.5843461
-3.2179461
-4.2292308
-4.426199
-4.7975001
-3.1373319
-4.1980256
-3.9262377
-3.7921101
-4.3045789
-4.1196921
-2.8896921
-4.3109614
-4.375346
-4.3876518
-4.654431
-4.2689371
-2.0653008
-4.5349145
-3.2608214
-4.8601726
-4.3117656
-3.973819
-4.4436731
-3.6521942
-4.4003583
-4.1551927
-4.3210442
-4.2539645
-4.4308192
-3.8567181
-4.3286242
-4.1414815
-2.383218
-5.073388
-3.6744936
-4.2739075
-4.4063952
-4.622444
-2.8982445
-4.172009
-4.5162271
-3.8756848
-4.1126164
-4.2760625
-3.9791922
-2.5079912
-2.9273122
-3.3082762
-2.9580637
-4.5863188
-3.65587
-3.3972037
-4.129271
-4.2189331
-4.465276
-4.7628502
-3.7015608
-4.5769677
-2.5728643
-4.2348772
-4.1919972
-4.3699972
-4.535671
-2.767957
-2.888029
-4.5917396
-4.3804526
-4.5242615
-4.2017867
-3.7708084
-3.2327023
-4.5849918
-4.388169
-4.6866825
-2.9844048
-4.3952786
-4.4525938
-4.4892678
-4.132004
-4.915483
-4.6417945
-4.6625257
-3.7878621
-4.6447125
-4.8596401
-5.1429424
-2.8213004
-4.2590127
-4.1702062
-4.3180732
-4.9986986
-3.6791564
-4.9440794
-3.921277
-4.5401374
-3.915045
-3.7829103
-4.1864511
-4.5880008
-4.0187545
-4.1332756
-4.391396
-1.8753234
-4.2085189
-3.8464567
-3.540773
-3.5924518
-5.0262931
-3.6020416
-4.5866215
-4.1538619
-4.3213556
-4.3429825
-4.5060505
-3.6417284
-4.1778506
-4.0978935
-4.5284187
-3.5286513
-4.0198535
-3.9299777
-4.2446627
-3.2604029
-3.5181213
-2.8391665
-4.381493
-4.4752478
-3.8173476
-4.3839022
-4.2489191
-2.8233726
-3.8922529
-3.3348579
-4.1789633
-3.7519586
-4.2949562
-3.2984291
-3.7809433
-3.2152091
-3.2273071
-3.9803729
-3.1500724
-4.6265244
-2.8676431
-4.3389485
-1.8232074
-4.2686566
-4.0229385
-4.4045559
-3.7126293
-4.0378949
-4.3196175
-3.36263
-4.0790934
-3.9499376
-4.0535891
-4.2944705
-4.2798287
-4.1323902
-4.1486683
-3.0182048
-4.3770188
-3.5471201
-4.3069154
-4.6845242
-4.9644584
-3.7015131
-4.2137533
-3.7949178
-4.3053782
-4.8323577
-5.1074094
-4.2295954
-2.6185489
-4.337805
-4.4576472
-3.7005945
-3.7331386
-2.8861566
-3.3647745
-4.4301992
-4.1379145
-3.8258195
-4.4008663
-3.9655919
-3.8462645
-4.0995592
-4.3429595
-4.3077161
-4.2213109
-4.5192266
-4.2401307
-2.9950163
-4.4663138
-3.5079465
-4.4821794
-1.9401705
-3.6466914
-5.0753132
-2.9014709
-0.93947563
-4.2355126
-4.2437495
-5.2561644
-4.2967341
-3.3079295
-4.18251
-3.9551021
-3.2185699
-4.7956289
-3.3618834
-0.99684727
-4.2801009
-3.0982373
-3.6054814
-3.2485173
-4.2321343
-3.3564537
-4.0982201
-5.0828137
-4.0093043
-4.220162
-4.2242103
-4.5411289
-2.8066483
-4.9433648
-4.9779854
-4.3320262
-4.4389622
-3.8675575
-4.5698958
-5.0494814
-4.475683
-3.9524367
-3.9949637
-4.995203
-4.5248169
-4.2410043
-3.2158539
-3.6116644
-3.452522
-3.3866852
-4.4075432
-4.5196506
-4.5438573
-4.117845
-4.7356039
-4.8034859
-4.6003195
-4.2561327
-4.2237294
-3.9578438
-4.130286
-4.2362615
-2.9844325
-0.75230342
-4.3653742
-4.2126033
-3.7331545
-4.1667143
-4.3484664
-2.476572
-4.0493661
-2.8371305
-4.9134305
-0.49177932
-3.2675444
-4.4920603
-4.5052621
-4.320205
-4.2534999
-5.0965111
-4.59878
-4.1398823
-4.1203164
-5.0725329
-4.6292483
-4.4509946
-4.4355669
-3.8402098
-4.3920206
-4.3551475
-4.1211842
-4.1638666
-3.1484365
-4.143272
-4.435896
-4.1073099
-3.4726036
-4.3962822
-5.1742706
-4.2089542
-4.1095662
-3.7822611
-3.8413213
-3.8718272
-3.6888109
-4.2989052
-2.9671742
-3.862973
-4.1907148
-3.9064448
-4.2573813
-4.5079388
-4.5368291
-4.3981312
-5.0201716
-4.7534558
-4.0215019
-4.3483931
-4.1860554
-0.14007941
-4.5710476
-3.3894329
-3.7477361
-4.0014846
-4.094781
-3.3515261
-4.4053568
-4.2519177
-3.6869934
-3.8909407
-4.139271
-3.4752739
-4.113127
-2.3782928
-4.7381344
-4.8087475
-4.2325839
-4.0873549
-4.3388391
-3.6908482
-3.7392419
-3.4684036
-4.5048823
-3.9968965
-3.5888767
-4.6269735
-3.3823204
-4.4579287
-4.5795137
-3.8182218
-3.0572661
-4.5981237
-4.407515
-3.8785111
-4.1797241
-4.3917948
-4.4743339
-4.1647571
-4.1422004
-4.4989672
-4.4048756
-3.7578064
-4.1161274
-4.0385839
-3.1968788
-4.8230492
-3.8899983
-2.866852
-4.0959835
-4.6834272
-4.1245794
-4.0440929
-4.3104599
-4.3361289
-3.9514344
-4.3550308
-4.4200143
-4.4544203
-3.6821909
-4.3911353
-4.0377706
-4.3940618
-4.2463329
-3.1824143
-4.0887629
-3.1819874
-4.4333214
-4.5336666
-4.0317988
-3.7029629
-4.3843996
-3.398201
-4.2122853
-3.7681415
-4.3330939
-3.9748224
-3.9250942
-4.4446008
-4.2561787
-4.1970674
-4.0632907
-3.2246269
-4.4423158
-4.6194556
-4.347531
-4.1540149
-4.6911547
-2.2949741
-4.8596457
-4.261813
-4.3623863
-3.9588278
-4.2104103
-4.7138026
-4.1618547
-4.0543453
-4.3487131
-4.5557149
-4.1488547
-3.6705011
-4.6411689
-4.373743
-3.7022768
-4.1212465
-2.5131176
-4.0724713
0.32179512
-2.6221347
-4.1155355
-3.757047
-4.0489837
-4.3759842
-4.2394567
-4.5738687
-4.1315959
-2.720505
-4.1738395
-3.9553131
-3.824792
-4.3407009
-4.5352528
-4.2730231
-3.9232935
-3.8900379
-4.35047
-4.5445185
-4.2526384
-3.8762036
-4.4761984
-3.1375788
-3.1786322
-3.9243674
-4.0781204
-3.8633892
-4.3547255
-4.5062373
-4.0384241
-3.7018659
-4.4985524
-3.5057875
-4.0184414
-3.7777115
-4.3944079
-4.2090662
-3.7410038
-3.9526065
-4.3115155
-4.1424841
-4.2921691
-3.6518518
-4.0103839
-4.458989
-4.2712631
-4.580836
-4.4421863
-2.6758639
-2.6035124
-2.7985148
-4.4028651
-4.106493
-3.7601306
-4.198044
-4.7067517
-4.4263498
-4.291031
-4.3972801
-4.7117384
-3.6874155
-3.8211006
-2.9064411
-3.9276857
-4.5938812
-3.9443152
-3.9363967
-4.3753884
-4.1303237
-4.123094
-2.9608636
-3.9494263
-4.6300865
-1.4650986
-3.9734129
-3.6722626
-4.4599026
-3.8070269
-3.123797
-4.745322
-4.4070589
-3.5558188
-4.3169783
-4.159192
-2.4897378
-4.2712694
-4.1307649
-3.8721101
-4.5089746
-0.38663356
-3.2235511
-3.9264648
-4.1697659
-3.4271947
-4.6795386
-3.2449892
-3.9480184
-4.1056975
-4.3877942
-4.2370256
-3.1521034
-4.1814149
-4.7368158
-4.1495707
-4.4899802
-3.0521047
-4.2288641
-3.8452059
-3.8390653
-4.1787615
-4.294045
-4.32991
-3.5249804
-4.0288873
-3.63612
-4.3048052
-4.4961648
-4.0703603
-4.0551899
-3.6903006
-3.7918923
-4.4899152
-1.8238582
-3.4808546
-3.1374659
-4.8117962
-3.9919802
-4.2895701
-4.417156
-2.0814908
-5.1786051
-4.4159744
-3.8357192
-4.6555552
-4.226891
-4.5369209
-4.7264111
-3.9477468
-4.0955604
-4.285052
-3.9466963
-4.4207693
-4.1280886
-2.7754727
-4.7083922
-5.2845176
-2.5785531
-2.9344864
-4.04863
-3.4554798
-3.9040085
-4.0112095
-3.7853643
-3.6674588
-4.3940035
-2.8500845
-4.4083598
-4.0847616
-3.0318618
-3.4900473
-3.544503
-4.4124181
-4.2854108
-4.4064007
-4.41416
-4.6658291
-4.8459918
-2.5019613
-3.4598417
-4.4765647
-4.987323
-3.4140785
-4.1271687
-4.6843428
-4.6212503
-4.2744994
-3.4423709
-3.5578626
-3.5545256
-1.1344182
-4.4509367
-4.0506031
-3.2543035
-4.3672417
-4.1675842
-4.1810261
-4.3982496
-2.6351112
-4.7627615
-4.0080376
-3.9612928
-3.9131394
-4.3270462
-2.6095761
-4.8067075
-4.5730744
-4.0709661
-4.4404661
-4.0970087
-4.399685
-4.322556
-2.204479
-4.6533244
-4.0718522
-3.2788305
-4.1950357
-4.0543601
-3.2197665
-3.7184909
-3.8136198
-2.2670787
-4.1057751
-4.0841509
-4.0940576
-3.3522921
-4.2115316
-3.8120206
-4.4725666
-4.3014416
-3.6815649
-4.0467619
-3.6660261
-3.8874842
-3.491465
-3.2877903
-4.2291306
-4.4682597
-4.2361246
-3.3066787
-4.6164722
-4.4212524
-4.846303
-4.2179326
-2.9020369
-3.9197994
-4.5167964
-4.3112467
-1.7739961
-3.8410154
-3.4725526
-4.3803152
-2.8746617
-4.2802544
-4.2930275
-4.2976479
-4.3670898
-4.0738423
-4.1154461
-3.0745916
-4.163765
-4.0078291
-4.0917103
-2.2298858
-4.7898582
-2.7923801
-4.329262
-3.8257266
-4.5296831
-4.6456416
-4.0182873
-3.8498654
-4.4981103
-4.1889187
-4.4228806
-3.6480286
-4.4630255
-3.5343881
-4.1801289
-4.2877658
-4.3503659
-4.6472585
-3.849585
-4.1104974
-3.4484317
-4.5919335
-3.8631933
-2.2210342
-4.2918206
-4.0194568
-3.5487698
-4.1411827
-3.5101825
-2.5917299
-2.4404772
-3.9758277
-4.5820887
-3.7642261
-3.6552419
-3.7942887
-4.418469
-4.0252646
-4.2869236
-3.9165084
-1.992993
-4.2885463
-4.3794364
-3.2046493
-4.40408
-4.6643088
-3.9843433
-4.2644253
-4.737187
-3.0361857
-4.1745779
-4.0738462
-4.3253756
-4.0796353
-4.2284258
-3.7344118
-4.2286466
-3.1664731
-4.5773382
-4.474871
-4.3999585
-4.1494859
-1.5214303
-3.4745347
-4.2348018
-3.2400227
-4.5420772
-4.1850084
-4.4794262
-4.6651995
-4.4111709
-4.0734549
-3.5969069
-4.6268942
-3.3880201
-4.4658669
-4.2684068
-4.4912946
-4.3831228
-4.4992789
-3.3759215
-4.5222489
-3.4540049
-3.8832059
-4.6912569
-2.9514603
-3.9092639
-4.6641995
-3.5351517
-4.3414102
-2.1726538
-3.3382342
-3.9055656
-3.9581639
-4.1054408
-4.0905275
-1.6368871
-3.9055523
-3.2159674
-3.981646
-4.881927
-4.3580299
-4.4558625
-4.2662508
-2.8943266
-4.480211
-3.841115
-3.13608
-3.8116598
-1.6155002
-4.1047979
-4.3667566
-3.6954575
-3.9309388
-4.0736137
-3.8614968
-4.0373325
-4.4187641
-1.8560334
-1.8660751
-2.1685032
-2.3907909
-2.0287665
-2.0417994
-1.8573891
-1.4167908
-1.9037324
-2.4740891
-2.0244494
-2.0389436
-1.5205838
-1.5349159
-2.8157392
-1.9984227
-1.5399236
-1.5453349
-2.1789259
-2.329996
-2.4518843
-1.0617531
-1.7218299
-2.6387656
-1.4120825
-2.4267584
-1.5080784
-1.3323994
-1.9761019
-1.6839232
-1.6079909
-0.15851676
-1.3698762
-2.0973927
-1.6722851
0.26516677
-1.9801558
-1.5569113
-3.47976
-2.8253465
-2.5702392
-2.3977693
-3.1657283
-2.943276
-2.5220738
-3.1398276
-2.2316028
-3.1881505
-2.6023428
-3.0676482
-2.5741399
-2.6452999
-2.2019061
-2.9442867
-3.1966064
-3.2530366
-2.6575393
-3.6049718
-0.70092458
0.041873588
-3.2253729
-2.676971
-2.8451534
-3.0442282
-2.0265981
-2.9500607
-2.852319
-3.5624454
-3.2326935
-3.5768661
-2.8136912
-0.39568227
-3.3660937
-3.2093509
-2.5728799
-2.1839983
-1.7892425
-0.54557656
-2.866402
-2.4998261
-2.087895
-0.53523738
1.0136974
-0.99960125
1.165232
-0.61898983
-2.0729807
-1.3752685
0.16310549
-0.78298437
-2.4968951
-2.236484
-2.0342983
-2.2225544
-2.1169908
-2.4115236
-3.3436464
-1.4738916
-2.0959075
-2.5419846
-1.5474004
-0.25136384
-1.4949265
-2.1379589
-3.9683919
0.047022634
-3.1107915
-2.83294
-2.4338032
-1.1906186
-2.8843817
-2.5752843
-3.3913202
-2.5422848
-2.2426599
-2.3190237
-3.5775739
-2.7043042
-3.1723845
-3.4225963
-1.8042341
-2.6735579
-2.328909
-3.2764539
0.22816202
-2.560587
-2.081193
-2.3107099
-2.9990216
-2.9608059
-2.3940275
-3.0280613
-3.1245385
-2.0413406
-2.8332368
-3.3425566
-3.1055832
-3.3153631
-3.0347634
-2.5314039
-3.2815843
-2.6853161
-2.9069194
-3.2347388
-2.1643917
-3.1241932
-2.9398089
-2.5609355
-3.0352931
-3.1572519
-3.8320543
-3.4051035
-3.2532863
-2.4533096
-1.0992925
-2.6148055
-1.8950145
-3.177878
-1.6815693
-2.1486272
-1.5520538
-2.047128
-2.1543884
-1.7570447
-1.9621675
-1.563193
-1.8891906
-0.9694096
-1.9720958
-2.649061
-2.5652844
-1.9587176
-1.560164
-1.4925636
-2.5519569
-2.3483528
-1.8968653
-3.1762591
-1.3656122
-2.1682389
-1.7844624
-1.6013192
-0.93391769
-2.2719097
-1.8675208
-1.4474155
-1.7127074
-0.80521594
0.20466254
-1.9035605
-2.1007998
-1.4562359
-2.0332124
-1.6197036
-1.5257429
-2.0579402
-1.9933269
-1.7165609
-2.3853425
-1.7827542
-1.9886227
-1.9923118
-2.5276991
-1.1445239
0.59702818
-1.7933439
-2.2043009
-2.1349974
-2.3727734
-1.8557831
-2.5708929
-2.9538368
-3.0057701
-3.1123406
-2.5733602
-3.1530995
-3.0862001
-2.7288596
-3.5429866
-3.5050115
-2.6569077
-3.1501496
-2.932115
-2.115623
-3.983659
-2.9467659
-2.5635156
-2.4285691
-3.8845671
-3.4245396
-3.1773306
-3.570806
-1.5011042
-2.10798
-1.7866495
-1.849798
-1.8199513
-1.8877671
-2.5535852
-1.8077527
-2.4077024
-2.3286585
-2.126085
-1.7936079
-1.2157963
-2.5311304
-1.8501474
-2.0693971
-1.6635063
-2.3966974
-2.7448528
-2.8111321
-1.1745234
-2.0455311
-2.9056114
-2.3280393
-2.0382579
-1.8251832
-1.5291418
-3.0434822
-1.7342445
-2.0854068
-2.2342663
-3.7829557
-1.0307164
0.27910259
-2.7781124
-2.4033549
-1.7950693
-1.2962297
-2.696168
-2.7090169
-2.0806734
-1.8865572
-3.1396703
-2.1670301
-2.2108131
-1.7921956
-3.3844125
-2.5191222
-2.6109514
-2.1467255
-2.625734
-2.452741
-2.3505262
-2.0857695
-3.4217384
-2.1794244
-3.1254016
-2.9797564
-2.9245334
-3.0222065
-2.6119322
-2.035386
-2.3509327
-2.264745
-3.4582188
-1.285851
-2.9587123
-2.9926965
-1.8842392
-3.0132579
0.89950945
-0.13026514
-3.888817
0.15317457
-1.9384504
-1.0111418
-2.0191654
-2.7217317
-2.5533929
-2.2922399
-2.2871323
-2.8915318
-2.477361
-2.6056532
-2.890036
-2.6327159
-2.7966916
-2.584429
-2.301473
-2.5824097
-1.7071117
-2.918727
-2.5846389
-2.0452903
-2.6733972
-2.6312893
-3.0160657
-2.9204781
-2.3673232
-2.762187
-2.5595514
-3.3974776
-2.2278006
-3.0268277
-2.6216442
-2.8000014
-2.9663573
-2.6880162
-2.6149382
-2.6420136
-2.3546491
-1.5850339
-2.6682683
-0.86038166
-2.6534246
-2.1016784
-1.1612431
-3.2244942
-3.4674647
-2.2436804
-3.629871
-2.5132453
-1.1312926
-1.8497048
-2.431225
-2.2817279
-2.2615843
-2.3306828
-2.6096322
-2.7879452
-2.2433056
-1.2782271
-2.6347128
-3.126437
-3.2642281
-2.5731662
-3.0256957
-3.0725239
-2.2507494
-2.6186793
-2.8938895
-1.9415623
-2.4406847
-2.2368729
-1.8464537
-2.5727103
-2.8535069
-2.2644137
-2.2215869
-2.4447653
-2.6690292
-2.6009048
-2.086126
-2.3777368
-2.4591114
-2.6639115
-3.0158519
-2.4586714
-2.6631166
-2.6784469
-0.89313085
-2.457217
-2.2475022
-1.3426436
-2.2139174
-1.6910917
-1.9670049
-2.1272567
-1.9478389
-0.56094497
-0.34889443
-1.0292434
-1.915403
-0.83472131
-0.48648222
-2.3906821
-2.4786651
-2.2058255
-2.6271035
-2.637881
-2.9658006
0.13048047
-2.8326541
-3.2451083
-2.8126436
-2.6341455
-2.4596622
-0.22813731
-2.558797
-2.3563391
-2.5997749
-1.9482651
-1.9050704
-1.3496895
-1.5144222
-2.2463501
-1.1168038
-2.6327572
-1.2861672
-1.6460991
-1.5143454
-1.906279
-2.7881846
-1.4641536
-0.78326551
-1.6161226
-1.7800678
-1.6616893
-1.1876115
-2.3503792
-1.1838624
-1.7986458
-0.86155888
-1.8626396
-3.2927684
-2.3074771
-1.7678553
-2.7716238
-1.6328096
-2.4983887
-2.5224477
-1.4838033
-2.1824784
-2.0243109
-2.3120259
-2.7063129
-1.9062478
-0.73870882
-2.6567572
-2.0913489
-0.69641865
-1.9557876
-1.0059035
-3.3719112
-1.5352113
-3.3147936
-1.7818557
-2.111337
-1.8377897
-1.7612693
-1.9579575
-2.5407183
-2.1349238
-3.0143038
-2.0902462
-2.2310245
-0.63370136
-1.7715234
-2.5015251
-2.5888907
-1.3608758
-1.1447598
-1.5311241
-1.3046266
-1.3153675
-0.87062648
-1.3389386
-1.6286981
-1.4507418
-1.6257514
-1.3481984
-2.2018754
-1.3403185
-1.4735833
-1.7358314
-1.3103039
-1.3175573
-1.2365686
-1.2905793
-2.5422645
-1.6291029
-1.8027555
-1.8260974
-2.0926597
-2.1307264
-1.4823449
-1.3912333
-1.2852854
-1.2743013
-1.2196221
-1.8684329
-1.378848
-1.6504348
-2.535209
-1.3253966
-2.2303298
-1.7077764
-2.0714819
-2.7307045
-1.0418981
-1.3544691
-2.4685535
-2.0400248
-0.72546325
-1.2001305
-2.5550244
-1.4863734
-2.9415433
-0.32251878
-2.8696575
-2.632741
-2.5205946
-1.9779837
-1.8841623
-1.5181259
-1.6283925
-1.7956317
-2.3748227
-2.4636457
-1.926674
-1.1880093
-2.1299261
-2.2245341
-1.5470868
-1.013508
0.21964166
-2.7580088
-3.5968911
-2.009743
-2.2517406
-1.6869617
-2.3319769
-3.9966692
-1.7472858
-2.074109
-2.1765485
-2.3484035
-2.0516284
-1.14258
-2.7673537
-1.999302
-1.5499938
-1.7881863
-1.5988921
-2.6256789
-1.7220297
-2.9404725
-1.9401239
-2.0504504
-2.353494
-3.182627
-2.2318003
-1.5258982
-2.0643222
-2.211932
-1.6010504
-2.6830016
-2.2692554
-2.1987877
-2.587078
-2.1579102
-2.7657935
-2.833087
-2.548252
-2.5949591
-2.9959924
-2.2037331
-2.6685163
-2.8896371
-2.7062766
-2.6879348
-2.4520687
-2.2093396
-0.068896368
-2.0643078
-2.1067611
-2.1272548
-2.0326725
-1.7805405
-2.4733952
-1.0791552
-3.4264142
-1.9543785
-2.4763842
-2.2341387
-1.929134
-2.3006449
-1.8859748
-1.4924817
-1.8216254
-1.4630184
-2.0199068
-0.81616629
-1.5693355
-1.6274384
-2.0072642
-2.3268276
-2.3900635
-1.8568246
-1.7753445
-2.0673653
0.39270243
0.53192465
-2.3944893
-2.4168349
-2.9859363
-2.9282915
-3.2747558
-2.3483514
-2.8550053
-3.1227974
-2.4971501
-2.9187671
-2.2149562
-2.884519
-2.147756
-1.1094889
-1.5635966
-0.71375383
-2.6591292
-2.792309
-3.0213796
-3.2934451
-3.0628152
-2.9540415
-2.7232049
-3.1873763
-2.7484461
-2.3923125
-2.1697031
-2.7061036
-2.5897962
-3.2995829
-2.4214383
-2.947437
-3.2684072
-2.05134
-2.2128326
-2.0174297
-2.4098535
-2.5085022
-3.2615823
-3.3415579
-2.2559977
-2.2999395
-2.337855
-2.0205155
-3.1324298
-1.4798439
-3.2834914
-3.0893419
-2.4948736
-2.8317591
-2.7127183
-3.1882157
-3.1851655
-2.7088051
-1.4858352
-2.2599621
-3.1589352
-2.2742029
-3.5606657
-2.5924525
-3.6808312
-1.8303903
-2.7458823
-1.7982818
-3.2534363
-2.1336373
-2.3582647
-1.8614339
-3.4093357
-2.7244359
-0.61603831
0.24337805
-4.5224023
-3.7353782
-1.509766
-0.12320811
-1.5889044
-2.3827968
-2.1910629
-2.0024761
-0.18072288
-1.7133172
-1.362259
-1.467612
-2.246191
-1.2445127
-1.60257
-1.766882
-1.560584
-2.5303284
-2.1010184
-1.3010617
-2.7320995
-0.83639872
0.16074478
0.36769572
1.3276799
0.37212118
-2.6923158
-2.6707983
0.11340987
1.8997982
-0.96121171
1.2498578
-0.917976
-2.9138626
-1.6144197
-3.1022178
-2.8561052
-0.69000015
-1.1739622
-2.5484637
-2.5095917
-2.9051281
0.3090789
0.70192785
-1.6038403
-2.8985317
-0.85832445
-2.7650163
-1.465726
-1.9792415
-1.2318416
-3.1279755
-2.5139729
-2.422475
-2.8602975
-1.7729401
-3.5679144
-2.5584981
-3.1226991
-2.9800564
-2.2132569
-1.4525363
-2.5649035
-1.4629514
-2.0101507
-3.077029
-2.4881353
-2.5370657
-3.1724768
-2.4699167
-3.194187
0.43398245
-2.1148987
-2.6603709
-2.3485036
-2.4393294
-2.8011847
-2.5310806
-2.6449267
-1.5339866
0.15608647
-1.5802913
-1.784022
-2.1055782
-1.954548
-2.3627479
-3.0979003
-2.7425
-3.7388862
0.060252494
-0.94504344
-0.14986302
0.071677727
-3.4151681
-1.5509736
-4.4082613
-3.18789
1.5192779
-0.18208264
-3.4055157
1.0137141
-1.9121498
-1.4990576
-1.9451122
-2.7810913
-3.2289775
-2.9463089
-0.7921317
-3.8710214
-1.7803012
-3.1895364
-2.3640125
-3.5100467
-3.6490415
-2.1356175
-2.394042
-3.9787027
-2.0644353
-3.754378
-1.7596055
-2.0423072
-2.1029493
-2.6255144
-2.2707266
-2.131419
-1.728797
-1.9797571
-1.5164207
-1.9571294
-1.9693113
-1.4323303
-2.1791773
-1.8283633
-1.3642902
-1.7578017
-2.0278874
-1.3791807
-1.4379331
-1.7425415
-1.9537028
-1.8179403
-1.4598098
-2.2447237
-1.5152113
-1.9034201
-1.6795545
-2.2551968
-1.3593769
-2.016428
-1.6849219
-2.8136641
0.26024429
-3.8350809
-3.2099901
-2.4068606
-2.2732485
-2.2132071
-1.502821
-1.4218354
-0.16418976
-2.5164946
-2.7973319
-1.3680813
-2.3503581
-2.0870036
-1.8962127
-2.2550768
-2.6937867
-2.1484577
-2.4980482
-2.3018603
-1.7635652
-2.0296266
-2.1690746
-2.9555148
-2.5163976
-2.5579789
-1.7448455
-1.8012236
-2.2590457
-3.2930604
-2.5469842
-2.3865471
-3.5812924
-1.8151794
-1.8149323
-3.0529124
-2.7953613
-2.6331255
-2.6042179
-2.8348639
-1.5597054
-1.8426913
-2.8000268
-1.815491
-2.1218918
-2.4558312
-2.5214232
-1.6618688
-2.4051724
-2.9941645
-2.2783937
-3.5139892
-2.5389261
-2.463015
-2.8144521
-3.0535034
-3.032928
-2.5078742
-2.021293
-3.3144715
-2.4243427
-2.3656965
-1.7446178
-2.3529053
-2.9987461
-3.5625913
-2.3402621
-2.2651361
-2.5079215
-2.7190146
-2.7421282
-1.9011846
-0.90582579
-1.6193784
-2.7749655
-1.4468309
-3.2109797
-2.5634102
-2.6359757
-3.020141
-2.8986986
-1.341044
-3.2418152
-2.5706101
-2.6718725
-3.3301905
-3.5726979
-1.7039129
-2.7591729
-2.8994045
-2.8105108
-3.5916866
-2.032754
-2.8350422
-2.285185
-2.5909053
-2.8415732
-3.1603279
-3.0316174
-2.9540528
-2.4105856
-2.3907746
-1.8624652
-2.5280201
-1.8234356
-2.7231097
-3.3173177
-2.7763166
-1.6207198
-3.4302453
-3.5632475
-3.2854916
-3.226578
-3.4275541
-2.7370623
-3.2266767
-3.4205061
-3.1052082
-2.78091
-3.9185507
-1.0809135
-2.5014927
-3.6618524
-2.0634061
-2.5685402
-1.7611831
-2.2536666
1.8200795
-3.1595531
-2.5331246
-2.6169416
-2.695165
-1.3038312
-2.3781281
-2.4937541
-1.9764154
-2.5552685
-1.2755803
-1.8289625
-2.6019751
-2.1142966
-1.3810208
-2.4425524
-2.499262
-1.2048918
-2.7854993
-1.226714
-1.7834141
-2.2231677
-2.7387018
-2.2659174
-1.7905145
-3.5685705
-3.5340522
-2.926143
-2.5916032
-1.7349083
-3.3858378
-3.2811175
-2.6946847
-2.7934739
-2.5622956
-2.6917772
-2.677769
-2.8720882
-0.96447641
-2.0180612
-1.3673426
-1.2584595
-1.6171852
-1.5349169
-1.610226
-1.1156071
-1.7985897
-2.1404512
-2.4436345
-2.9862693
-2.5663432
-3.4242737
-2.4600999
-2.0844567
-3.2976804
-2.6558669
-2.8124911
-2.6369874
-3.0356298
-3.1840744
-3.3133999
-1.8156185
-2.2908235
-3.3588655
-2.7664713
-2.9601406
-1.7597279
-1.546632
-2.5639644
-2.6285362
-3.077933
-1.8541657
-2.577607
-2.5393208
-2.5520173
-3.9789272
-2.8966714
-2.2365352
-1.8973487
-2.3738127
-2.857104
-2.3254008
-3.105648
-3.0556033
-2.5271255
-1.4770328
-2.6713296
-2.4687902
-2.1649066
-2.7247174
-1.7792593
-2.3367137
-2.1151156
-2.8158437
-2.1724514
-1.5191684
-1.9326359
-1.662757
-1.6786084
-2.2618709
-1.7241815
-1.6180171
-1.5485687
-1.3772659
-1.5902934
-1.786792
-1.9202204
-2.1812168
-1.6878329
-2.235425
-0.74836142
-2.0926451
-2.144546
-0.90340794
-1.5973039
-1.3704286
-1.2559683
-2.0630627
-2.0022117
-2.0616934
-1.4457775
-1.8133055
-1.7483006
-1.6393322
-1.4775463
-1.2593748
-1.5215445
-1.6466747
-1.5342233
-0.89226368
-2.0496209
-1.0606637
-1.0567507
-2.9271194
-1.4805473
-1.8848737
-1.2920065
-2.2535064
-1.3915222
-2.0651331
-2.1541436
-0.95226815
-1.0374031
-0.50663287
-1.7757473
-1.5556097
-2.5840309
-1.5732648
-0.99978721
-1.5059771
-1.9534856
-0.64934887
-2.3342707
-1.8361198
-2.4624552
-2.0518363
-1.5786663
-1.4519712
-1.4583355
-1.8446079
-0.99428378
-1.0819551
-1.7665248
-2.4503111
-1.7349584
-1.9739961
-0.70504715
-1.4281074
-2.0126565
-1.8004187
-2.5505495
-2.1159567
-2.5904624
-1.4663273
-1.5926001
-1.8949538
-1.7847038
-1.756362
-2.4851438
-2.3713707
-2.2728539
-3.0047132
-0.61880037
-2.4147479
-1.3242557
-2.1831234
-1.7035037
-1.5720586
-2.1390683
-1.6492914
-3.0419196
-1.0097572
-2.1263389
-2.23952
-3.3854834
-3.0992326
-1.8324606
-1.4080483
-1.6425519
-1.4578164
-0.97842868
-1.3799593
-1.6072461
-0.97735246
-2.7887841
-0.79950656
-1.9420837
-2.285825
-0.96276637
-1.5118178
-1.1708233
-2.2630538
-2.3388018
-1.8394268
-1.385786
-1.8650673
-2.474538
-1.7241423
-1.2511091
-2.4090629
-1.7572601
-0.50639231
-1.7241076
-3.0256581
-1.8934084
-1.1682872
-2.6609547
-2.565289
-1.5088274
-1.8948468
-1.7562321
-3.0189788
-2.4273435
-2.5763997
-1.9835507
-1.6737282
-2.2166194
-2.0688093
-0.76026161
-1.3359227
-1.8898523
-1.9844288
-1.9090272
-2.1660601
-2.0485124
-1.8959741
-2.1778865
-2.7311384
-1.8191928
-2.2913163
-1.5156255
-2.5888608
-2.5088516
-2.1980585
-2.8429451
-1.6588247
-3.2819711
-0.9437606
-2.698365
-2.4517254
-1.7497895
-2.6080356
-2.9497375
-3.6570022
-1.2770019
-1.2105088
-1.6281697
-2.5696878
-1.644891
-1.6486616
-1.5984759
-2.8473239
-2.3923985
-2.2721059
-2.84374
-0.9323579
-1.7866945
-2.6135521
-1.2066431
-1.5897725
-1.4830942
-2.8127619
-2.5239115
-1.5892273
-1.2687995
-2.2545725
-2.1440487
-2.1103647
-1.7398798
-2.3607738
-1.5871142
-2.3117555
-2.0082358
-2.3289338
-2.0444133
-1.9852955
-2.0006834
-0.84713044
-1.7212363
-1.9340853
-2.4006364
-1.8013763
-2.4696189
-2.7180778
-2.5801501
-2.1786789
-2.1994128
-1.6238875
-1.434458
-2.6259211
-2.8413325
-1.9796517
-3.0258161
-1.7844874
-1.4707556
-2.6859384
-1.972886
-2.6513578
-2.729031
-3.8920176
-1.7343533
-2.6670008
-2.5746091
-2.6097688
-2.5190391
-3.1347605
-2.4109462
-2.2214227
-1.7265314
-3.157608
-2.215785
-2.8061319
-2.8468801
-2.9436423
-2.0955688
-2.1189655
-1.782453
-2.3198827
-1.1253504
-2.4038628
-2.0641846
-1.6935804
-2.6201623
-2.5444916
-2.8665606
-1.7635925
-1.6669199
-3.3293699
-2.0197434
-2.5368682
-2.535897
-1.7777693
-2.1217975
-2.4274118
-1.9369164
-2.5015127
-2.359349
-2.3602192
-2.529558
-1.7712813
-2.6943686
-1.8705169
-1.5828273
-1.2369963
-2.7590123
-2.0146319
-2.4167192
-2.9981108
-2.1518481
-2.1605339
-2.3812344
-1.6626236
-2.3962428
-2.0541191
-2.8955097
-2.6215947
-3.0024325
-2.7349061
-2.5296189
-1.262312
-2.0939142
-2.5391268
-2.6821422
-2.1988053
-2.2082094
-3.0463672
-3.0060467
-2.9045542
-3.0846907
-2.8742923
-3.0762996
-0.63760774
-2.3894189
-1.7357668
-2.6060252
-2.594221
-3.2167415
-2.9791286
-2.6663097
-2.5741932
-2.5194766
-2.8415726
-1.9197143
-1.8284935
-2.3161048
-2.9136535
-3.5854654
-3.0694877
-2.9162424
-2.8722788
-2.3377237
-3.5703912
-2.260128
-2.2482616
-1.8783384
-2.3427969
-2.7233741
-3.1447854
-2.8619181
-2.1335173
-2.3211852
-2.9437166
-2.2407709
-1.216759
-3.0615118
-2.4613111
-3.0520832
-2.635449
-1.5541258
-1.2461421
-0.70557853
-0.083224801
-0.51318552
-0.020126884
-0.78582409
0.065223467
-0.38048542
0.31730129
-0.63807945
-0.48435253
-0.38630491
-0.98562275
-0.81002837
-0.21107051
-1.2059559
-0.85284681
0.36275858
-0.034168194
-0.60579095
0.2061781
0.001564183
-0.61954641
-0.25120297
-0.40653976
0.003885247
-0.18680451
-0.93626792
-0.11645922
-0.52972435
-0.40794012
0.15946692
-0.49061768
0.027186266
-0.35417443
-0.84278506
-0.057233292
-0.19685066
-0.48469034
-0.11985321
0.17954236
-0.36984711
0.98999784
-0.39794703
-0.29721297
-0.86627548
-0.27293591
-0.01338174
-0.56528688
0.41711053
0.89658226
0.70646817
0.16608249
0.65411569
-0.24661801
-0.30764425
0.79448856
-0.47745119
-0.09555342
-0.060867561
-0.43892237
-0.18834859
-0.16696249
-0.14387715
0.34313635
0.22266236
-0.88251754
-0.38943246
-1.0736193
0.4929705
-0.45029035
0.26210196
-0.20210557
0.10993587
0.42756533
0.29558324
0.6100936
-1.4129485
0.73410806
0.052602258
0.65850372
0.4396329
-0.24168491
0.52196751
-0.67988969
1.1002675
-0.9761762
-0.24227741
-0.48642372
-0.21983489
-0.73957022
-0.22615434
0.28610655
-1.0445652
-1.586616
-0.42708647
-1.0165149
-0.71220694
-1.1309657
-0.75688782
-0.47827107
-0.30978523
-0.32860798
-1.0259167
-0.53821049
-0.19284856
-1.1305345
-0.58985894
-0.53652479
-0.49588176
0.61309737
-0.28491772
-1.2972622
-0.093575792
-0.96981559
-0.96105136
0.17670076
-0.37532009
-0.5960616
-0.84747185
-2.3014534
-0.83615066
-0.68867326
-0.46476658
-1.0024545
0.70998277
-0.079417204
-0.94367244
0.62547492
0.24199357
-0.75425119
-0.41413767
-0.090317551
-0.56318892
0.45076397
-0.68196599
-0.34821952
0.45874935
-1.0813951
-1.0131328
-1.0027868
-1.0094737
-0.52695779
-0.93236623
-0.63329216
-1.1615608
0.20994287
-0.052425509
-1.099773
0.49570744
-1.1672544
-0.58669449
-0.41735299
-0.51817745
-0.2558305
-0.71276406
0.1359698
0.009583339
-1.0429678
-1.3425164
-1.8741585
-1.7755964
-2.1896892
-1.323526
-1.391208
-2.2347458
-2.7641902
-2.7269908
-1.8892655
-1.8786085
-2.9041472
-2.9431777
-2.3441917
-3.1257004
-2.5707691
-2.3350052
-2.8221909
-2.2579867
-2.9740933
-2.4635388
-2.445929
-2.8690843
-2.4572808
-2.2467152
-2.6552291
-1.045248
-1.0142434
-1.0451883
-2.6494569
-2.7837778
-2.8816478
-2.8435365
-2.7929021
-2.7290984
-2.1902907
-1.4028129
-2.9024283
-1.4143997
-2.436738
-2.4351717
-4.4400898
-2.5742123
-2.1482696
-1.819885
-2.6146709
-2.7988899
-2.6331547
-3.1035509
-2.1743842
-1.1673898
-2.8369074
-2.5876587
-3.0208088
-2.5006312
-3.0614985
-2.8581242
-2.9967445
-2.8049976
-2.3672848
-2.4788894
-2.3502992
-2.5473681
-2.4229354
-2.5630611
-2.2003574
-3.0003738
-2.8535686
-2.804928
-1.1045581
-2.3903691
-2.692276
-2.9410727
-2.7913439
-2.7332388
-3.2126154
-2.0155833
-1.836148
-0.34528412
-1.7813989
-2.8245831
-2.9330545
-3.1231093
-2.9701265
-2.6785128
-2.0758382
-2.3623705
-2.7621476
-2.6612197
-1.0227354
0.044044662
0.2316968
0.2583246
-0.69231215
-0.43046346
0.43806209
-0.71546743
0.65954675
-0.37614029
0.14257534
0.8170313
0.33108779
-0.49803113
0.19524997
-0.45160808
-0.075076896
0.47398579
0.21958514
0.62902126
-0.54117976
-0.59239304
0.66481703
0.34354383
0.109332
-0.57958572
-0.69483502
-0.7876755
-1.0442382
-0.059222615
-0.53132943
-0.61738186
0.74690505
-0.98941487
-0.064391521
-0.67510025
-0.31981769
-0.69176077
0.82997842
-0.84652648
-0.38275137
0.28926163
0.056058856
0.5898329
0.17687723
-0.10657274
-0.089880887
0.43735838
-0.50089796
-2.6852564
-0.49018355
-0.42582313
0.17313284
-2.7583779
-3.132908
-4.3464153
0.8893222
-1.9760097
-0.18606395
-0.67229467
-0.056581578
-3.4963139
-2.5120691
-2.8276808
-1.2747964
-1.970931
-1.7725068
-2.2976743
-0.46587651
-1.415294
-1.4183546
-1.5015527
-1.2304996
-1.8005287
-2.0584071
-1.5002576
-1.1735586
-1.4011677
-1.5597835
-3.8019557
-1.0725018
-0.28541428
-3.4194465
-1.419396
-1.7191384
-0.94808214
-0.98588376
-1.5078055
-1.2025214
-0.81441071
-0.93035128
-1.2671628
-1.4776056
-1.1391024
-1.4314989
-1.808509
-1.7220515
-1.0847408
-1.3728823
-2.5809104
-1.0757467
-1.1289811
-1.222083
-0.44999257
0.40693516
0.21606295
-0.74498126
-2.063274
-1.5712575
-1.965934
-1.2460656
-1.8940503
-2.0242841
-2.4897179
-2.4638119
-1.838811
-2.2774786
-1.6598598
-2.047832
-2.2705939
-2.7352404
-2.0590251
-1.8043513
-1.2732355
-2.3431448
-1.926781
-1.969788
-1.3351884
-2.0526607
-2.8150982
-2.3717909
-2.6159655
-2.8602662
-1.5736331
-2.3573116
-2.9842497
-1.1899647
-2.7350379
-2.9126066
-3.3831671
-2.8941139
-3.3201959
-2.9503154
-3.2095289
-4.5275306
-3.2107185
-2.9639207
-2.832002
-3.0383957
-2.5658194
-2.1292725
-1.6838817
-3.1765007
-1.2788202
-2.5090777
-2.719304
-3.2790549
-2.5411022
-3.2839749
-3.3974775
-2.5382483
-3.4501445
-2.9366808
-2.2915179
-3.2467236
-1.4448575
-3.0830537
-2.611745
-2.4265612
-2.8481143
-2.1300265
-1.9236209
-1.7450976
-1.7083536
-1.5508661
-1.6493928
-1.5779183
-1.3765023
-2.4514684
-0.59403681
-1.2309387
-1.4679956
-0.79374815
-0.88421387
-1.3844343
-2.3150379
-0.9544359
-2.2709077
-1.5435585
-1.3586426
-2.3677362
-2.2907045
-2.663996
-2.0840793
-2.4915584
-1.775086
-2.7073706
-1.6939462
-0.79077106
-1.3557145
-1.6205264
-0.42099983
-1.0453979
-1.5887401
-2.9363166
-1.4998571
-2.7573841
-1.3704913
-2.1390449
-3.4941845
-2.6513
-2.4060771
-2.9872455
-2.736936
-1.7841535
-3.7487191
-3.3586047
-3.4579122
-3.0614751
