-0.11252183
-1.1008778
-0.56708802
0.49047253
0.80023202
-1.5076736
-0.297161
0.44676853
0.087630577
-0.83228111
0.084430128
-0.007819138
-1.0743015
4.0581274
-0.76160326
-0.18649962
0.80393944
-0.92021269
2.7446026
2.4028692
-1.3622631
1.9354139
-1.862747
-0.99857184
-0.28834122
0.53974315
-1.1812944
1.5319341
-3.5278988
-0.77586665
-0.03594174
-1.3132285
-2.0956639
-0.65713662
1.0066612
0.30348816
-0.83354058
-0.869182
0.1940386
1.381994
0.8601815
-0.50162131
-0.53334196
0.85178389
0.40506333
-2.3427143
-0.83081234
0.88416093
1.1048512
-0.69539923
-1.2277594
-1.3353913
-0.57057541
-0.42019446
-1.5358419
-1.0052389
-0.73224152
-0.89012079
-1.167315
-1.6235661
-0.36223864
-0.90458107
-2.5949047
-1.3428389
0.32219993
1.1074486
-1.4269827
0.85885584
-0.88208927
-2.219609
-1.1011346
-2.0142886
0.7868802
1.7537712
1.0515095
1.9223602
1.8471145
-0.56005725
0.70399228
0.16958503
-1.034307
-1.667531
-0.028529653
2.1043676
3.2061228
-2.2435443
-0.38044502
-1.1666652
-0.59622658
-0.79079161
-0.13825638
1.10779
1.6844966
-0.80466851
0.45699917
-1.3152739
-0.35313554
2.0459122
-1.9842857
0.004069623
0.89008037
-0.65172542
-0.29888217
-0.21657646
-0.90540551
-0.11253034
0.29184859
-1.0601273
-1.6398861
0.008053907
-1.2940085
-1.5061581
-1.9433714
0.6818035
-2.6113457
-0.77607851
0.48081834
1.5085774
-1.3725014
-2.9748977
-1.1510212
1.4232311
0.17424586
0.5300435
0.011899162
-0.16859601
0.4066104
-0.39452983
0.39572353
-0.75769293
2.5641795
-0.49961665
-0.96966351
-1.0528602
-0.30466237
-0.72451891
-0.70163057
-2.4206185
0.49946565
1.3889488
-1.0044395
-2.273653
-1.2338991
-0.16032856
-0.75536263
-1.4068699
-0.2171903
1.0928647
-0.90084791
-0.091513512
1.0053415
-2.2215525
-1.9097521
-0.99617901
0.030878018
1.2855536
-0.94521791
-2.4032782
-1.6322553
0.19562851
0.41500751
-1.0209472
-1.5982333
1.3318459
-0.99229395
0.9963011
-1.1769774
0.61444142
0.56765164
1.5692821
2.0443367
0.20983711
0.36349498
-1.0759223
1.5698615
0.67939822
-1.3255691
0.27387082
-0.39434396
2.1501399
-0.49630004
-1.0452343
-0.6237449
-1.9581325
0.016169842
0.59208088
-0.83137794
-2.1191075
-1.0904736
-1.7522274
0.87997694
2.7599659
0.35959659
-1.461036
-2.2051776
-0.54622738
0.6160258
-0.46846403
-1.1840851
-0.1360795
-0.95191833
-0.61920129
0.003576731
0.12105995
0.20033561
-3.6941974
-0.27249062
0.3973526
0.72830095
-0.51316072
-1.1680216
-1.2098397
1.3841956
-0.15851412
-1.3916096
-1.0198749
0.68521175
-1.3025372
-1.1511232
-2.8587072
0.20276603
-1.9304468
0.070826631
-2.3570923
-0.6589291
-1.4352989
0.32002587
-0.44047864
0.59426445
-1.0012172
-0.042893535
-0.46281625
1.9794817
1.6651624
-1.5465672
1.1095291
0.1240109
0.1628937
-0.88750742
0.15046721
0.41689063
0.50248557
0.064649505
0.002955587
-0.42549858
-0.49044649
-1.0173677
-0.76474485
-1.4604418
-0.82490885
-1.5760424
2.9652162
-1.5827272
-1.372743
-1.5072043
-1.0991622
0.90544113
-1.2192313
-1.3939789
1.6771362
-0.080842973
-2.0042969
-0.45793874
-0.35222432
-1.0523677
-1.027129
1.3302502
0.44846126
0.71612087
1.6745991
0.72974322
1.3203013
0.048731057
-1.3840969
-2.1676751
2.1177909
-0.75777434
1.2160099
1.5226928
3.964126
0.88651199
-0.22498471
-1.1983307
-0.57513927
1.1315853
0.24847345
-0.29696732
1.5135416
-0.3506792
-2.6528186
1.6631984
1.5104676
-0.032245388
-0.003376902
0.19598933
0.89486742
1.2500604
-1.1352904
-0.33239107
0.39099063
0.87644323
-2.4811533
-0.59395374
-0.73344443
-1.1526845
0.4984457
-0.9828303
-1.0347759
0.80452689
-0.71257478
-0.16309261
-0.8980667
0.36318269
0.12126624
0.95086515
-0.82973167
-0.15723694
-0.79563068
-0.040954364
-0.65666958
-2.4652502
-2.2225163
-0.91837251
0.77244772
1.3861837
-0.32481451
-0.96865161
1.3114534
-0.65566563
0.7086579
-1.1467688
-0.14475703
-0.37993038
0.67982432
0.19051403
0.65190222
0.86453818
-0.52318883
-0.67155938
-1.3487608
-1.9118342
-0.1648246
1.3936131
2.169973
-0.82599353
0.87040151
-0.22560212
0.20895144
-0.34309939
0.57865023
0.62292072
-0.061890481
0.91324841
-0.35918419
0.32872057
1.409734
0.39143882
-2.5752144
0.045004998
-0.39518213
-0.26093397
0.86339075
-0.60985969
-0.56728856
1.5920123
0.97402452
1.1732645
-0.51479108
-0.064864401
-0.67741481
0.31132399
-1.4806592
-0.009656398
-1.3230972
-0.81668954
0.12998941
-0.011550214
1.048069
0.98825939
-0.47899396
1.4034481
2.0976292
-0.51801276
-0.61514896
0.072529729
-0.77472407
-0.14683595
-0.92320393
-0.016044404
0.086379744
-0.000497768
0.29990113
0.31166039
-1.5057604
0.80951912
1.0488882
0.41500775
0.21534832
-1.0209034
-0.88005692
1.3990184
0.17418264
-0.54773629
-0.40022501
1.1445297
-0.84625706
0.56184879
-0.58205832
-0.97080707
1.7002592
-0.50249533
0.61192836
-0.28391801
-0.88942787
-0.44330061
-1.2485325
-0.52258227
-0.33567008
-0.92282223
0.95324235
-0.95726017
-0.6691161
-0.57134826
1.3730281
-0.33660257
-0.026299809
1.0850975
0.40720559
-0.23412113
0.57640674
0.064774848
0.12247472
0.76630781
0.27586483
0.37650802
2.6302249
-2.5038077
-0.7295919
0.075319218
-0.31700873
1.1516559
-1.2118736
-0.41120406
0.90016313
-0.56519132
0.97233243
1.1155734
-0.33465752
-0.27624344
0.89836727
-0.95513971
0.73109223
0.19266264
0.35120929
1.5375483
-0.98907124
0.34453901
0.90613092
0.94818227
-0.9720689
0.54566295
-0.20080386
0.24098572
-0.34445443
0.53213361
1.461842
-0.28728648
1.0723271
0.10951712
0.75594922
-0.23057705
1.2217242
0.13714314
0.68916497
-0.51724825
-0.16546262
-0.301966
1.4607771
-0.16520745
-1.5458167
0.48905336
0.13671197
0.47779251
1.5623024
-0.64087571
-0.49095234
-0.44283608
0.23288459
-1.5753018
0.05569023
0.19654843
-2.4513453
0.34894317
0.90054697
-1.3906369
-0.47857737
-1.3252098
-0.021963843
0.288011
-1.1336738
3.6908442
-1.3481323
1.0242946
0.54565692
0.66113283
1.649272
-0.32310299
-1.3092739
-1.7369065
-1.1018726
-1.384063
-0.72679421
0.59990841
-1.2697484
-2.012515
-0.82091791
-0.52032445
-1.7986707
1.295295
1.1816985
-2.3728175
-2.2650481
0.55986768
-1.4656647
-2.0483787
-0.28550651
-1.913185
2.5764767
-0.96348677
0.269583
-0.63164137
0.21937846
0.4099109
-1.2024103
-1.4493833
1.5018347
-1.6289483
-1.3334513
-0.39028303
-0.21701258
-1.2742129
0.075915874
-0.73115107
-1.518555
1.4037936
-0.21255577
-1.2613637
-0.51318563
-1.8948875
-0.56906862
0.031222478
0.073556519
-0.65669531
0.44038789
-0.96203551
1.1377783
-0.41581885
-0.11152229
-1.9426476
-0.42779615
0.11427125
-0.68051665
-0.24524177
-0.23867393
-0.02172411
1.0526171
0.16039069
-0.34415448
0.010113723
-2.1747116
1.541284
2.2074644
-2.6873861
-1.4985995
-2.5755616
-0.40153717
-2.0641545
-2.0370274
-3.0304555
0.90005461
0.18397053
0.2171904
0.013787092
-0.87675733
-1.542954
0.80564983
-1.2498409
-1.4159682
-0.13199753
0.080152648
0.23412241
0.17427273
-1.6257227
-1.1803056
-0.033142722
1.0632306
-1.9214751
-0.72551128
-2.4020304
-2.3310557
-0.9653828
1.5358125
0.59577816
0.083265379
0.23646412
-0.51471255
1.1407662
-1.3667048
-0.78423515
-0.8392668
1.8701316
-0.18797063
-1.2306402
-0.17629228
-1.5527184
0.45838307
-1.5277554
-1.8246642
-1.2256887
2.0259155
-0.60212321
0.52855429
-3.0939168
0.010714469
-0.37662815
-1.2165297
1.6898387
-1.5096586
-0.8301825
-0.85386578
-0.80248612
-0.39483106
0.16658576
-1.6920758
0.90968501
-3.0430836
-0.91964482
-1.1123727
1.0958329
-0.43297324
-1.5458032
0.063688311
-0.6585843
-0.40427182
1.4133313
-1.2180926
1.9680789
-1.4260705
-0.79301181
-1.3085612
1.048395
0.74035865
-3.0643647
-3.2757832
-1.3730862
0.1101565
-1.4611508
-1.7123583
0.41511915
1.3744308
-1.7525118
1.044414
-0.76760108
-1.9210932
0.072394621
0.20993227
-0.10529505
0.15648371
-0.47415087
-1.2762324
0.47632186
-0.51153461
-0.84069369
0.56496084
-2.2809295
-0.77655495
-0.93497664
-1.5846651
-0.34090954
1.9648906
-1.3601168
-0.98813276
-1.5295431
-0.55703451
0.69908915
-1.3391974
0.59284711
1.1276383
-0.23597253
0.99873675
-0.61361619
-0.18130215
-0.10452227
-0.46884197
-0.84897113
1.7945503
-0.21891228
0.25400131
-1.7163289
0.16257617
-1.158089
-0.065396385
-1.726934
-2.718035
-1.4431332
-1.197203
0.94182102
0.30398811
0.14113186
2.6217879
1.7009373
0.48240147
0.66973018
-1.491982
-0.14468176
1.6251398
1.172276
-3.1430004
-0.43775615
-0.29798128
-1.472757
-0.56497621
-3.5662577
-1.0047251
-0.89225486
1.4546236
-2.3063265
0.51481237
-1.7521079
-0.23670407
-0.3676037
-1.065328
-0.10989951
-0.63661715
-1.9878074
-2.1020862
-1.4499836
1.5902266
0.58793899
-0.2576935
-1.6747767
0.89940949
-1.0184217
-0.44811601
1.7275416
1.7573702
-1.5447286
-0.19097951
-0.92996017
0.31434536
-1.3630247
-1.7941962
2.6871486
-1.2082065
0.4690033
0.50471203
0.55431941
2.0313902
-1.1616157
0.013091478
-1.1686798
-0.53833238
-0.99768365
2.4399375
0.035002402
-0.19189638
0.16569165
-0.31572253
1.5932103
-1.537689
-0.35547049
-0.39859715
-2.2252716
1.6926019
0.61538473
-0.79888314
-0.67371557
0.072052286
-1.1480618
-1.3141468
-0.46226634
-0.11838737
1.839039
1.1131809
-0.16269989
-1.2430175
-1.1477325
-1.755133
-0.11720631
0.15121722
-1.1124793
0.57694647
0.25137731
1.2855556
-0.83420522
0.7125066
-0.42904055
-0.040185347
2.3040254
1.7869984
-2.5369338
-1.8656965
0.27791727
-1.6843008
1.7977536
-1.1973817
-2.6404896
0.30808027
0.045986583
-0.37722691
0.19248918
-1.9646174
0.86597321
-1.9959247
-0.43410796
-0.3840187
0.44553567
-1.840113
0.21869388
-1.4736214
3.0035217
-0.7641406
1.2248493
-0.65032588
0.85086902
0.002739813
1.3631395
-0.4806488
-0.757271
-0.45255401
-2.8626658
-0.75500697
-1.0985959
-2.0257809
-2.0283844
-0.98285723
-3.3232798
1.0847662
1.3697597
1.0401632
-0.65140527
-0.4626231
-0.37551176
2.4605963
-0.2824949
0.30623033
-0.28084162
1.0445413
0.19640334
-0.41561913
2.0564104
-0.92440353
-1.6140852
0.17580191
-0.98300257
-0.30213688
-0.7566731
0.03590523
1.1889173
3.980522
-1.9455858
-1.0571165
-2.7169518
1.0273459
-2.5197098
-1.8262423
-1.3101477
0.15788501
0.32868371
-0.83580452
-0.93426419
0.19211532
-0.96221272
-0.46573233
1.5031742
-0.43653927
-1.4292937
-1.5110744
-0.82113833
0.28906156
0.37994618
0.44198855
-0.52275644
-0.52493789
-0.26462812
-2.9117431
-1.8720544
0.83342189
-0.37385248
1.8417037
-0.33398123
0.13650471
-1.2645679
0.20265228
-1.4633551
0.99377427
-0.82777852
-3.0064674
-2.2725626
1.1763103
-1.229557
0.16397096
-0.62790309
-0.95889946
-1.1742164
-1.7574998
0.15283497
1.1351719
1.7733738
-0.63439195
-1.36025
0.46066348
-1.7843545
1.284135
-1.725662
-1.1667461
0.43201443
-0.37054333
-1.3088485
-2.4417415
-0.028623643
-1.5839576
0.61559148
-1.2948009
-0.9296128
1.2114378
-1.5876101
1.1271139
-0.74401337
0.081260177
-0.76081501
-0.22714914
-1.4100006
0.73447046
-1.1562738
0.37730906
0.89864697
-0.1052722
-0.6776273
2.3574151
-1.3977914
-2.5370113
-1.8563689
-1.6788746
0.31225911
0.68343334
0.93497741
1.1810208
2.1670011
-1.3492359
0.061321395
-0.38176086
-1.0781686
-2.2346311
-0.95417606
-0.059624765
0.073007146
1.8491332
-1.3033611
-0.28660609
-0.75151399
-0.64770812
2.5878644
0.004274099
-1.1606689
-0.73351982
1.3468532
0.33447175
-1.194657
-0.82950832
0.068375508
-1.6635438
0.76435237
-0.97031889
-1.799238
-0.3465199
1.3477543
0.06961167
-1.2311085
1.3262481
-0.6804036
-0.51740426
-3.3034331
-0.66911966
1.618218
1.3836421
-0.15456255
-1.9269755
0.43158214
0.001568426
-0.78035093
-1.8406346
1.1521721
1.8122141
-0.70156078
-1.4726354
3.5505529
1.6776581
-0.16691804
-0.77606926
-0.24228781
-1.7217079
-2.4758384
0.52770479
-3.724799
-0.91303127
-3.0135591
0.4972815
-0.82030371
-1.3281705
-1.9790355
1.9946893
-2.5512038
-2.5923624
-1.1783194
-1.5228961
0.7165958
2.9715562
0.91908679
-1.2591685
-1.8680523
-1.2649872
-1.0130863
1.0185149
-0.88124703
0.87313934
-1.309953
-0.086140191
-2.5392393
0.48895424
-0.53006356
-0.19392743
0.97758305
-2.1709672
-0.84262132
-1.3874726
0.002810476
0.3884475
1.1598907
1.3603402
2.3209216
0.66882021
-2.0168925
0.50007271
-1.0455679
-1.0366303
-1.7409158
-0.48197655
1.6916396
-1.7122458
-1.6934477
-0.090043297
0.80797513
-1.2248373
2.0967026
0.60496866
-1.0197307
0.48356513
-0.22259645
-0.49506004
-0.94829611
-1.784607
0.99788434
-0.22543816
-2.0535357
0.74389521
0.13868852
1.9141921
-1.312532
1.5488243
-0.22531901
1.801598
0.33521445
-0.093734572
-1.0722546
-0.087357649
-0.87127275
-0.33882161
0.014455172
0.6801946
0.31254739
-1.1017242
1.043867
-0.077009817
-1.3564806
0.87147899
-0.16796679
-0.44918329
2.0119243
-1.3342981
-2.1654749
0.72155206
1.1769864
-0.10066105
0.90603436
-1.4114811
-1.8937547
-0.49352574
-0.79390013
-1.7759454
-0.86494868
-0.67180649
-0.38789439
0.8266463
-2.2599163
0.58679535
-1.3917631
-1.8972932
0.89985539
0.80637506
2.2631572
-0.85189853
-0.30121058
0.029643877
0.86705959
-0.33102904
-3.0539033
0.39029676
-0.47763214
2.7368568
0.16259435
-0.98587492
-1.2856953
-0.64901742
-0.21622783
-0.37102251
1.3904195
-0.31069714
-1.6062726
1.5643222
1.4375853
-1.5822374
-1.4411843
-1.3937909
-1.1534864
1.6507388
0.90532755
-0.81681708
-1.3850115
1.8551932
0.91321865
0.9178806
-1.0545796
0.11221916
-0.66551119
-0.22643837
-0.29437621
-0.80730173
0.16223357
1.0432499
1.6535612
0.4432041
-1.3027878
0.47438484
-0.77282963
-0.18312161
-0.52753118
1.5568074
-0.66702322
0.60318988
-1.6823182
-1.5750394
2.0561575
-1.9107153
-2.7340544
-1.2702362
1.5070622
1.072784
-2.5385798
-1.6900977
0.15569364
-0.44563393
-1.9451514
1.883443
1.5346993
1.2624063
-0.41354454
-2.1630851
0.62035652
-0.70870219
-1.1093877
-0.92076802
-1.3562946
0.1402548
-0.36310945
-0.44559745
-0.39953988
0.59338175
1.8768805
0.67123526
2.4860706
1.8422751
-1.2663774
1.1315836
-0.54239255
-1.3194094
-1.8856314
-1.6449684
-1.6689079
1.5100106
0.12468678
-0.30247674
1.9665839
-0.77904038
0.0512875
-1.2711337
1.2801693
-0.33074015
-0.60407828
1.3540725
-0.92983239
-1.1673198
-0.84936562
0.51998979
-0.95682536
-1.0597449
-0.05885377
-2.6866891
1.4297011
-0.57770123
-1.6753605
0.84117389
-0.090253668
-0.40200589
-0.18085318
-1.0990116
-0.89102708
0.11864476
1.4103454
-1.7888734
0.15502701
0.40139843
0.80275868
-0.65859011
0.001096384
-0.37663977
-0.65247975
-2.7150803
-0.93803929
0.19648537
-1.6936625
-1.8547215
2.8564234
0.16357928
-1.2956495
-1.2681578
-1.8168121
-3.8326776
0.95175198
-0.10011563
4.2227918
-0.81660309
-2.4032022
-1.0889244
2.5582679
-0.52682126
1.2868159
0.062236183
-0.66474534
1.0194576
1.5041284
0.13777095
0.39402608
1.1537959
-0.92013929
-1.2593265
-0.02121898
-0.84021451
0.22426955
0.91165695
-0.013367409
-0.14257597
-1.5688792
-1.0941242
-1.0659116
-1.5355334
1.526966
-0.72662181
1.0767894
0.12377935
-1.0882996
-2.6555359
1.3007236
0.39070661
-0.48248716
-1.7395324
-0.69686299
2.1848076
1.4684368
-0.085970978
-0.025279824
1.8865006
1.8224473
-1.9372561
2.0259583
-1.4179071
-0.32025439
-0.64534387
-1.4232716
-0.1650982
-0.92047323
0.76725885
-0.65665466
2.759564
3.0136191
-1.1411159
-1.090191
-1.9216541
1.1919271
1.6983228
-1.9797004
-0.22650747
0.78537747
-0.1252727
0.3964043
0.81382389
-2.374426
-0.18678731
0.98103089
-0.1251514
0.012463757
0.50619935
-0.36621696
-1.6889217
0.39942528
1.0564202
-1.6156542
-1.6889953
-1.78272
-1.2972884
-1.1562284
-0.56361173
-1.3302442
-0.61332454
-0.45452324
-1.7153514
-1.3034924
-1.3620844
-1.1712763
0.14440682
-1.9113836
0.73185575
1.3794993
-0.93462721
2.2001963
-1.2242308
-1.3776227
-2.3517658
1.4197459
-1.141207
-1.7072235
-1.5484692
-0.90103295
-1.6552655
0.33446152
-1.5556496
-0.92548376
-2.0724192
-0.003365192
-1.8617347
-1.0062796
-1.2266512
-1.5653053
-2.0691065
-0.79745123
-2.3388108
-2.0520683
-0.51177944
1.8391911
-1.8070829
0.022839359
0.025169394
0.69417208
-0.66867482
-1.0978263
0.60271608
-0.28007207
0.30674554
-0.72111492
-0.071359625
-2.2855371
-0.40917033
-1.2381281
-0.77417157
0.022041775
2.4550368
0.86961161
-0.40405266
-2.6738294
-4.4850285
1.9902829
-1.0213667
-1.1341102
-0.37686314
2.6786319
-1.4194108
-2.0908394
-0.03866713
-1.5737505
0.85800874
-0.73287467
-0.77054427
-0.81167843
-1.3894248
-1.7965617
-0.46786085
-1.5163825
0.22186326
0.073328392
0.026541191
1.2650197
0.83509922
-0.38380061
-1.1499877
-0.63308525
-3.1223484
0.44034205
0.11690526
0.60561375
-0.63046958
-0.77013577
0.99820523
-1.5350388
-0.57643622
1.0224455
-2.3329316
1.0568165
-0.76448007
1.3345463
-0.55066729
-0.35656683
2.0526305
-0.075319845
-1.8180849
-1.3949293
-1.1376563
-1.8219298
-1.366994
1.21517
0.95517441
-0.6571038
-1.0589422
1.6588455
0.88088547
-0.15483108
-0.69571025
0.32888842
0.35043796
0.38326479
0.68182601
-1.4065088
-1.1621432
-1.0016014
-0.20644109
-0.21123004
-1.3326681
-0.18023919
-1.7002894
2.1065205
-2.5471683
-0.58780359
-0.70456166
-1.2350973
2.0919131
-0.40732163
1.2751928
0.41909679
0.008509775
-0.82975204
-0.23606203
-0.76770922
-1.5281212
3.0400547
0.2126867
-0.64504901
-0.65051953
0.29379239
-1.1243426
1.0479366
0.62700267
-0.88203895
-0.49575028
1.5694633
0.21619263
0.60822084
0.87578462
0.65660518
-1.980285
0.82040614
0.033293473
-0.57997361
-2.7965103
-0.65761804
-1.5631113
-0.53211578
-0.80905378
-1.0739781
-0.45178216
-0.31378575
-1.1124642
2.7272377
1.4697557
-0.18253238
-2.7010907
-1.8884105
-0.88597238
-0.35120982
0.74530173
-1.8933348
-0.49602825
-0.65318061
-0.59775263
-0.46163557
-2.1950858
-0.32809176
0.20315245
-1.7632887
0.56564886
-2.1184759
-1.9794272
1.4049982
1.4955333
-0.42647873
-0.98673381
1.2646771
-0.54307164
0.65684467
0.51449433
-0.7571785
-0.31507686
-0.91471215
0.089613233
-0.055081248
-1.2781418
0.070285443
-1.9225555
-0.92470242
-4.1973698
-0.94371861
-2.1514612
0.006420142
0.72290705
0.39841022
-1.8758913
0.56234727
-0.85493897
-0.044625069
-0.42407758
-0.64410174
0.22503197
-1.7993249
-0.42681976
1.1017579
-0.45810784
-0.82895519
-1.0409503
-2.5474105
-0.98982077
0.41888524
-0.98040535
2.3635579
-0.88706256
0.25925934
0.54624399
1.4291
1.1058128
-1.0256347
-0.3206804
-2.1600218
-1.1442883
-0.91841194
1.2806605
-0.8394246
-1.5737001
-0.44371511
-1.6895257
-1.9646249
-1.3478873
1.3736366
-0.64638682
-0.54134386
1.2341976
-1.3653309
-1.3488522
1.1139544
0.93592654
-1.6025006
-0.006159932
-0.92293943
-1.0298558
-1.3820287
-0.4876243
1.5983759
0.082044364
0.13871326
0.10329808
0.41797345
-1.4370428
-0.78297844
1.9475901
-0.066864829
-0.77522885
1.6790171
1.4908177
-0.74841891
-0.79706289
-0.55935403
1.4590336
1.1775711
-0.78188568
1.1677863
-1.0035607
-1.199216
-2.4714513
1.6220903
0.046158549
0.24961032
-1.6094276
-0.48381811
-1.1399311
-0.2940358
-2.167933
0.32146548
2.4048811
1.284861
1.7237493
-0.11473914
-0.99371483
-2.2719235
1.3708401
-0.36482558
1.2494052
0.47038564
-0.43422686
-1.6511986
-0.75997511
0.93829749
-0.83506255
2.1833154
-1.9047889
-1.4512873
-2.4908866
-0.68188335
-1.9829088
-0.18886503
0.59803196
0.033165048
0.009121446
0.96580368
0.033879358
0.50005684
-2.168059
-0.10740691
-0.57823582
-0.33476139
-1.259234
1.3826004
0.026992085
-0.049312048
2.7100674
-0.37622307
-1.3934231
0.64904008
-0.69091917
-2.2010716
-0.75541389
-0.99417737
0.48220327
-0.77146279
-2.5447137
-1.044985
0.62545527
-0.14697346
-0.66980381
0.060160883
-0.8661109
-2.2357596
-0.47805527
0.48717183
0.41739462
1.3753136
1.135086
-0.29619356
-0.064570105
-0.15022087
-1.6464979
0.97292993
-0.42066278
-0.24446865
-1.261477
2.3249405
1.9137878
-0.89360986
-1.4078411
-1.6532282
0.93156317
-0.29029785
-0.39412888
-4.386722
0.024654885
1.3439155
-0.93352874
-0.6553936
-0.69622065
0.21624832
0.62779879
0.17797845
-1.5980697
-2.5333164
-0.44890964
-0.31729513
0.62047405
-0.26768592
0.81714279
-0.28302809
0.11958602
-1.6732207
-2.2162379
-2.1354797
0.24325364
0.11395926
1.3367753
-0.46198563
1.492782
-0.25858468
-0.66273546
-1.5129641
-1.0711514
-1.1016255
-2.0272699
-0.95891343
-1.8216257
-1.66949
0.060573363
-0.77690091
-0.44534278
-0.42493971
-0.79793359
0.78629121
-0.037758616
-1.1060389
-1.365439
-1.4223846
0.9735595
1.4122149
2.1577288
-0.49463522
-0.277903
-0.32305308
0.85715423
-0.33040427
1.8495462
-2.4138677
1.0889724
-1.7680123
-1.6546815
-1.4659111
-2.3465125
0.025765234
0.75526661
-0.99102251
-0.64907781
-0.62674668
0.64809529
-1.8438289
-1.2376839
1.3382148
-0.18947199
-1.3120734
-0.71600847
1.2457365
-1.8868484
-1.1814413
-1.1295743
-0.46900956
-2.6850041
0.33030335
-2.1952911
1.5104723
-1.4874255
-1.9888709
-1.6716427
0.78081754
3.9176006
-1.0452013
0.3308203
1.0576346
-0.56058575
-1.124378
1.7705132
-0.69799315
-1.6019245
-0.98994639
0.28281475
-0.74986766
-0.68360645
-1.3356224
-1.4377803
0.11809902
0.2886695
-0.31557211
-0.71733613
-0.54605748
-1.0484093
-2.186192
1.5535938
1.3731584
0.88033877
0.24973638
-1.1626672
-0.62310465
-2.5713
-0.54470715
-1.4112485
-0.59136874
-0.86243396
-2.4588531
-2.7248343
0.93599522
-2.956461
-2.4969547
-0.16783114
-1.9866318
1.0519719
-1.1456804
1.5788673
-1.7005352
-0.80947514
-0.21495479
-1.0797047
-0.15851733
1.5221249
0.34663441
-0.5919814
-1.3694502
-1.786024
-0.064766412
-1.856372
0.50392065
-0.28911692
-1.8221859
0.21290177
-1.6966508
1.3351081
-1.5332813
-0.013660011
1.4177192
-1.9143582
0.080530416
-1.6356565
-0.99514461
-0.86652806
-1.717563
-0.48435641
-1.9534591
0.41263451
-0.82254374
-2.352149
0.047041612
-0.9829297
0.30403182
-1.3242745
0.75362956
0.007703339
0.78011491
-0.86648262
-1.4091023
1.6976779
2.4666475
-0.78747004
-3.0533051
-1.2755742
-2.6796165
-1.4995221
1.6006477
0.82182109
0.54594144
0.55083907
0.76740453
2.6566579
-1.763097
-1.5065156
0.83734178
-1.3545995
-0.82860355
-0.42883001
0.087867181
1.5531872
0.037161328
-0.9078494
-1.1469883
0.94123272
1.4300402
0.41466943
-1.9930365
1.1844496
-0.96685277
-0.866599
0.25777195
0.99805495
-0.98902742
1.336145
-0.21370137
-0.7401042
-1.6127326
-1.3533027
0.13621207
1.0298882
-0.77313731
-1.2974819
0.53002403
-0.45326763
-1.8864763
0.39123509
0.42218676
0.66704076
-2.1264775
-1.3392321
0.19499279
-2.8236989
-0.78853144
-2.5005757
-0.15638419
-2.5059282
-0.89154255
0.8051492
-0.71267427
1.2385772
-1.0566396
-1.4218592
-0.60744043
-0.6069442
0.78714347
0.17485087
-1.8539677
1.9276689
-0.7846591
-2.4220907
-1.941699
0.55616968
0.55294252
-1.4254961
-0.58031862
1.5481209
0.95833215
-1.1121982
-1.085018
-0.7466774
-1.4409317
-0.97903668
3.0738208
0.90552368
1.3418267
-0.94333957
-2.1068516
2.2692008
0.44149693
-0.075835914
-1.4528158
-1.7946848
-0.25132393
0.10563924
-2.2328686
0.085773665
-1.6638506
-1.0448251
-0.11596238
0.41498911
0.79708612
-1.1002389
-1.1862286
-0.79214961
1.1853331
1.4040978
-0.88643015
-0.84771936
-1.2540373
1.6338368
2.0862774
-0.39264422
1.772284
1.0891979
-0.97366172
0.40972929
-1.3723996
-0.58858662
0.60276723
2.5301978
-0.44579819
-1.7815576
0.79381765
-0.51119643
-1.152648
3.6119329
-0.31050737
-1.393345
0.03122741
0.82718915
0.32383618
0.39436649
-1.5620921
0.82910297
-0.64014619
-0.4587831
-1.2911034
1.8846043
-1.4799938
-0.86865821
-0.22003694
-1.0365663
0.78315509
-0.87916286
-0.25652744
-1.758845
-0.27789914
-0.51444708
1.166522
-1.6894022
-0.80251388
-2.8298417
-0.96644751
-0.85860522
-0.95361914
-0.12511139
-0.67385174
-0.5849676
1.5619952
-0.50206042
-0.14057152
2.9368236
-0.99438784
0.31921982
-0.7954576
-1.7264807
-0.86460017
1.640028
0.014956757
-1.980723
-1.6634883
4.9664142
-0.017883734
-0.37811803
0.18195384
-1.6497982
-0.66769582
-1.5074591
0.063658053
0.77711009
0.64294627
-0.27408864
0.79816932
1.5290597
-1.481137
-2.8671276
-1.0525916
-1.1859736
0.27764227
-1.2726572
-0.037433761
-1.7200653
0.54046564
-2.4081125
-0.20564988
-1.9467936
1.2177393
1.1925713
-0.08750857
-2.5183465
0.93788623
-0.74606993
-1.5879513
-0.80424723
0.79576473
-1.6446008
0.15864646
-0.83373609
0.81326205
-1.1758399
1.019834
-1.356851
-2.6741352
-2.2753192
0.18506205
-0.8760795
0.10348704
-1.4945585
1.6566821
1.0854888
-2.4693642
2.5546664
-1.7242237
-1.5426052
1.4266187
-1.0916711
-0.60497484
-0.33593073
-1.3692027
-0.46790942
-0.12673637
-0.71584839
-0.39343238
-1.5178473
-0.42409095
0.24589672
-1.5613443
-1.8614598
0.53855705
-1.8430397
-1.9943195
-1.0627842
-1.5120757
-2.1176672
0.70714245
-0.16310785
0.21408363
-0.93265637
-1.322983
0.13304566
-0.82245241
-0.54032973
-1.2512447
0.71355841
-1.3451667
-0.15626005
0.1230748
-1.0978102
-1.579653
0.64381748
0.68504948
0.39161476
-3.1380829
-0.11237994
-0.1240707
1.1101245
-0.70727539
-1.575276
0.1160155
-2.7414852
1.5609677
-0.19282369
-0.139618
-1.7041148
-0.90170791
1.4969595
0.97784032
-1.2669698
-1.2330475
-0.77325776
-0.16051471
-0.57590598
0.88573956
-0.99740608
-0.28013751
-0.66944196
1.0661338
-1.5629925
0.070987058
-1.7694114
0.44447106
-0.76406296
0.43301178
-1.6146529
-1.1131965
-1.2549606
1.6412396
-0.10635192
-0.29386734
-1.028633
0.03076581
0.12845195
-1.5106299
-0.87062624
0.55141767
0.19977959
-0.36832966
-0.52825458
-0.44384319
-0.68414834
-0.94111177
-1.7278123
0.35733914
-0.32822176
1.8468806
-0.74415901
-1.167502
-2.3801857
-1.7527427
-0.37088863
-0.13969053
-0.40142885
-0.56612925
-0.6377296
0.12641841
0.55454005
-0.28928351
-1.8040886
4.0330039
0.087808268
-1.5344099
-3.0872451
0.47918574
-0.61042884
-1.0716762
-1.0887674
-0.77620803
1.0547263
0.89612808
-2.0053207
-1.8092076
0.99553959
-0.22540278
1.1964439
0.86164185
-0.013383162
-0.22834853
-1.2827029
-0.23150786
0.242016
-0.53734529
-1.8509354
-0.21582865
-1.698604
-0.47533173
-0.80799644
1.1002773
1.0238493
0.76050018
-1.2960744
-0.36657848
-6.7294987
-0.12594014
-2.3106928
-1.7358933
0.29994186
-0.074986621
0.88814985
0.19089801
-0.29035523
-2.0146349
1.4975775
0.74702466
1.7443993
-1.1275302
-0.44942717
-2.83118
0.038499915
-1.0523641
-0.76956482
-3.1386569
0.29145828
-3.17774
-0.74584277
-0.66026293
1.2840707
-1.6790689
-0.7510869
0.26067774
0.91357004
-0.37466282
-0.4619807
-0.27730819
0.80084324
-1.5590958
-0.48050986
0.78300262
-0.40727972
1.1555471
-1.0244837
-0.88670531
-2.2216254
-0.89920597
-0.8117788
-1.3053198
1.4480178
-0.27748525
-0.95916453
0.34087115
-1.8549068
1.8547228
-1.1753487
1.687175
0.10968673
-1.5245151
-0.69602269
2.5522189
-0.79296577
-1.3030206
0.074273575
-0.72308584
1.5021178
-1.1574166
-0.17613346
0.5930891
-1.1924331
-1.8306917
2.4078757
0.62842216
-0.71857798
-1.2292746
0.79062833
-0.49632532
-0.53399028
-0.03825655
-1.3911554
-2.1359759
-1.4609233
-0.90692074
1.4054191
1.3800019
-0.40498786
-0.53663919
-0.84959585
-1.6906464
-1.3319497
-1.0853916
-0.20242062
-0.30084946
0.56555865
0.10792868
1.8543989
-3.4620417
-0.34719809
-1.0641923
-0.20051526
-1.0056378
-0.82592356
-0.349231
-1.5839675
-0.70568443
-1.3645811
0.52291508
-2.1156892
-1.1968931
-2.5537113
1.3150942
-0.54282874
-2.4751765
1.2058062
-1.5633242
-0.71618411
-0.27258152
1.685891
-2.3002925
-0.68836275
0.62286142
-1.0024738
-1.5347029
-0.79027786
-0.62690333
-0.83642919
-0.54488074
-1.0911122
-1.7205153
3.8132899
-1.1514595
1.5034548
-0.56692248
-0.73309241
-0.25450715
0.20154693
1.0937027
-0.85901386
0.29038762
-1.2969256
0.11159955
-0.87151754
-3.0474716
-0.05252823
-1.0483032
1.7678178
-0.28330211
-2.0364699
-2.4697411
0.32002096
-0.77544538
-0.51572391
0.1376836
-1.2044924
-0.022416358
-0.68454744
-1.6416424
-1.1127816
2.0378848
1.7985208
-1.2823081
1.4456692
-0.097465849
-1.0499008
-0.20726011
1.1182248
-0.26379173
-0.58577939
-0.21629418
0.18522213
-0.32003918
-4.7359489
-2.3425694
-2.7295199
-1.535756
2.0516874
0.25099142
1.5287284
0.80083429
-0.43606051
0.13841263
1.4957655
-2.2745053
1.8491206
-0.17581637
-0.79780102
-1.9490712
0.80840598
-0.87931484
1.0771547
-1.1428924
0.42750131
-1.3240751
-0.058154184
-0.4507503
-1.9922116
-2.2666748
0.36552934
-1.8911711
2.1953155
-1.9724667
0.05451779
-1.5229796
0.23099982
0.9276121
-0.7209994
-0.76166169
0.52483968
1.545882
-1.8732863
1.1275867
-1.1658061
-0.072641534
-1.7564404
-3.1007793
-0.078208807
-0.67302593
1.5225911
0.7386798
0.67644508
-1.3659236
-0.93264626
-1.159247
-1.3504728
-1.2890257
-1.3471245
-1.1870062
-0.44408972
-1.7869361
0.75731685
-1.2972907
-0.88701831
-2.2655344
-1.7722616
-0.46361642
1.3224984
1.5115647
-0.21262834
-1.2979614
0.21936193
-0.22420802
-0.20143219
-1.6159944
2.4369768
-1.8545325
1.2233153
-0.97934702
-1.931671
-1.4792304
-0.95540855
-0.91679596
1.0547893
2.1888237
-2.4785177
1.6466106
-1.6240283
0.40225426
0.039202964
0.061735752
-0.61513145
0.28187081
-0.79903205
-0.96535749
2.1080823
0.77615951
1.559039
0.88007885
1.9603435
-1.4684906
-2.6161509
-0.71966028
-0.48338962
-0.19960092
0.71358377
-2.1824703
-0.12970004
-1.0090226
0.45114049
-0.94533508
-1.4076374
-1.5019518
-1.1610828
-2.0925782
-0.97504586
0.64703499
-1.495267
1.8220915
-0.11807011
-1.0876974
-0.73889326
-0.91639402
1.5161162
2.9881775
-1.8960456
-1.322992
-1.6449215
0.1145602
-3.0293284
-0.009529143
-0.89586664
-1.4465347
-1.4464562
0.54043484
1.303489
-1.60787
0.017698994
-1.0283402
-0.66297699
-2.6361859
3.6455819
-0.65545873
0.61319082
-0.66551836
1.5651937
-1.2342893
-1.1238128
-0.091089494
-0.00890513
1.121646
-1.1375655
-0.14248507
0.75256839
-0.74443129
-6.0284206
0.25902487
-1.3115071
0.72579583
3.279402
-1.6256797
-0.90871032
0.72915032
0.31610658
0.46656432
-2.6993757
-0.81111304
0.14401111
-1.7806587
1.8670232
-0.81865289
-0.98324725
0.38852007
-1.0685003
0.3116736
-0.94354446
-0.57648498
0.088599074
-0.29485496
-1.392636
0.058070966
-0.71589492
0.3541076
-0.92600698
-0.085682894
-0.69776496
1.4548192
0.44832651
-2.2794588
-0.50607226
0.88315892
-0.48480701
0.13576178
-0.84478679
-1.998602
-2.2363522
-0.52375393
-2.3818421
-1.449413
0.88964243
1.7680903
0.22527914
-0.77695011
-0.51290734
-1.2659888
-1.6552049
1.5570062
-1.0713454
0.69025425
-1.0751876
1.4642413
1.8885029
-0.42495465
-0.66844878
-0.98360697
-1.0504592
-0.96374746
-1.2941366
0.69035934
0.56290576
-0.17408927
-0.83958625
-1.086337
1.5155202
-1.2880961
-1.431131
-0.95893061
-0.019787564
0.54174179
0.92109691
-1.7840856
-0.6464727
1.1520258
0.18020502
-0.7173053
-0.82367131
-0.98348753
-1.3097433
-0.64857435
0.090974146
-1.905168
-0.67884458
0.64685053
-0.43958404
-0.10626411
-1.0760659
-1.3109924
0.36606611
-1.2453318
0.78458782
-1.5720278
-1.2901322
-0.77827036
-1.5864571
-0.49699239
-1.2720451
1.5836336
-1.4434615
-2.494631
0.47225582
-0.57227102
-1.1877716
1.3391643
-1.2704267
-0.16149567
-0.6484595
-2.0832886
-1.0489619
-0.30370293
-0.6021527
1.8225316
-1.1464484
-0.53582194
-2.0589217
0.68499042
-1.5918613
-0.98009784
-0.22389447
-0.092921894
-1.0301951
-0.96594695
-0.98785136
0.53608564
-0.15643301
-0.61235455
0.95420283
1.5409644
-0.9211801
-0.60075346
-0.17424441
-0.48486712
0.30407732
0.71017095
0.88397881
-1.0549806
-2.1901399
-0.65057416
-0.15409567
-1.7582777
-0.49922086
-0.98238684
-0.66431952
-1.4677218
0.16822367
1.6872279
0.38075107
1.3674044
-0.27098952
0.25509971
-0.47157287
-0.89192053
-0.025519552
0.5399561
0.068440267
-0.70502706
-0.80841717
-1.586352
-1.7217177
0.43630592
-1.7798111
1.4315423
-1.4748544
0.83787427
-1.8214883
-0.64390007
-0.82464505
1.5414924
-0.47483683
-1.4313555
-0.74215771
-2.6833164
-0.98964583
-1.3549099
-0.066235335
-1.3104224
-2.1363217
0.24553599
-0.83428968
1.171015
-0.97554633
-0.85346093
-0.54706198
0.29021532
-0.93819262
1.9891631
-0.85612245
-0.83862719
-1.5502768
1.2934814
0.46862315
-0.2845389
-0.73779151
-2.1154816
-0.55943892
0.37060938
-1.301298
1.5770248
-0.79574719
-1.0139029
1.0785716
-2.7198296
0.036942038
-1.8321087
1.547441
1.5565185
1.6097251
0.72012433
0.48066337
-1.2711506
-2.1325712
0.014063767
-1.2849547
1.4849514
-2.0409531
-1.5950478
-0.9287353
-0.49331909
-2.1621745
-1.6217322
-0.86234063
-0.61049344
-0.18985479
-1.1706767
-0.88283025
-2.3553959
-1.2300428
0.16768004
1.1022391
-0.000380756
-2.5711373
-2.2225435
-0.90153842
-0.29020977
-1.5007842
0.34376439
-1.573103
-0.66393937
0.013182577
-0.74039382
-1.0303369
-2.7869191
0.24728067
-0.734067
0.3161342
0.69102499
-0.65791083
-0.92409218
-2.3589219
-1.0638952
-0.26134499
0.060703764
-0.58899525
1.3886362
1.9170472
1.9041242
0.41428848
-1.0729876
-0.14338433
-1.7996218
-0.44025729
0.67822668
-1.0360074
-1.7071109
-1.4351519
-0.35488202
0.023778917
2.5674542
-2.0979911
0.72655193
0.44261018
0.97112852
-0.35301727
-2.1589442
-1.9906866
0.59631541
0.15985175
1.2850627
0.85877977
-0.16537464
1.386386
0.37003998
-1.0124563
1.552375
-0.46475303
-0.39490182
-1.466322
0.22250061
0.61347353
1.566449
0.04706607
-1.4730248
-0.82218861
-2.2998921
1.561335
-1.5551764
0.61194452
-1.3059093
-1.4155994
-0.60563204
1.4573438
-0.96625036
-3.5226906
-1.6115529
-0.74410012
-0.72909849
-0.069251999
-1.5643571
-2.9348553
-1.9750985
-1.1492478
-0.39765727
1.2513178
0.44278411
-2.4858088
-0.023095144
1.2747581
-0.23414045
-1.3379132
-0.5176889
-2.214337
-0.83698393
-1.4669325
-0.30854895
0.69868822
-1.022412
-2.2772746
0.66257464
1.4613696
1.8257027
0.1524721
-1.9546481
-1.0305148
0.22095636
1.4069724
-0.63889239
-1.7641346
-1.1084799
-0.183241
-0.81759983
0.16558283
-1.7805752
-1.8107437
-2.8394798
-0.33848715
-3.0218298
-2.2855731
-1.3285524
1.4666195
-1.2050371
-0.62216902
1.6583538
1.6944427
-1.4732763
1.3591755
-2.1357048
0.59404838
-1.2268479
1.9979188
-0.24119515
1.7587573
-1.6191966
0.88792541
-0.69766995
-1.292827
-1.0129305
-1.4369871
0.14690301
-0.78355421
-1.607803
0.077462031
0.26772844
1.1838403
0.90032786
0.22599959
-0.6009055
0.9643183
-2.3488324
-0.62848028
-0.05460984
-0.31163585
-1.1860029
-1.9922055
-1.0946951
1.4727018
-0.85401434
0.65232382
-0.16721068
-0.6833535
-2.1172722
-2.9530139
-0.80798584
3.4504552
-1.7681684
-1.9182484
-0.18313721
-0.091801969
0.32236803
0.98873821
-0.10013184
0.182705
-1.0948023
-0.90509546
-3.5241567
-0.10468747
-1.1298207
1.33634
1.150241
0.16015901
-3.9010189
-0.4222731
-2.3341196
-0.26010748
-1.3109812
-0.84150845
1.3961496
0.89246918
-2.5426937
-0.78373548
-0.89143219
-1.1663483
0.74659643
-0.83697318
-1.389282
-2.0552117
1.016964
-1.0632015
-1.0337006
0.87066948
1.3105225
-1.7271401
-0.32559844
-2.0475652
1.9018548
-1.7599703
-0.026192986
-1.4547185
-1.6179952
-0.64593065
-1.259319
-2.1418501
1.3682394
4.0963767
0.92296282
-1.4010531
-1.8022838
1.2631719
-0.72699313
-0.81023283
-2.0378233
-1.1403671
0.2217222
-0.90040793
-1.4946872
-0.011771811
0.040410249
-1.6450523
2.0683376
-0.16573684
2.049021
1.3149743
-0.001779238
0.16104328
-0.92213837
-1.6629053
0.53011325
-2.140325
0.96260711
-0.99483921
-1.2451488
0.23319141
-0.31443747
-0.30385646
0.91735736
-0.81201112
-1.1501143
-0.1052515
-0.63441291
-0.007108648
0.0726772
0.81892814
1.0558816
0.051716159
-0.55688652
-1.2092348
-0.73107071
0.63533597
-0.041027274
1.3937469
0.71666566
0.50123397
-0.74514153
-1.1155984
0.46114339
1.0091688
-2.03766
-1.5770109
0.73591732
1.8867641
-0.84769107
-1.4512558
2.0192537
0.070698773
-0.13905919
-1.1767852
-1.7117111
-1.026873
0.97286139
-0.83289535
0.21139598
-1.3494335
-0.98748705
0.23393412
-0.81009162
-0.52016299
-2.0249434
-1.3368323
0.27359734
-1.6865144
-0.56142675
1.2036925
-0.83015781
-1.1156909
0.65196751
3.60833
-1.1681051
-1.4093362
-1.7291626
-0.05515765
-1.6145128
-0.80154862
-1.7591026
0.56978627
0.20228621
-2.9022926
0.51111526
-0.23986681
-1.2192959
0.32296305
-0.529419
-1.1674183
-1.0320965
-0.24591966
-1.7450834
-1.5976588
1.1032674
-0.82537038
-2.2509315
0.76512321
-0.12747319
-2.4595932
2.2610523
-0.90039371
-0.27999563
1.166981
-1.7364914
0.8441926
-0.91931844
-1.0855894
-1.0387992
-0.70659824
0.15307611
1.6752979
0.63914876
1.2203045
0.93093676
-1.0151678
4.2616464
-1.0414369
-1.6373151
0.76154254
-3.1075674
-1.6939583
-2.089921
-2.1239719
-1.5538344
-0.54303372
-1.0825027
-0.89394966
-1.1351239
-0.94517305
-1.2535608
-0.42529819
-0.30681838
-1.0471275
-1.6425657
-0.86327731
-1.170113
-0.43321745
-0.64825676
-1.653888
-0.8171001
-0.25578871
-0.26941126
-0.82946204
-1.087508
-2.0039883
0.034884024
-0.10750309
-1.2166807
-0.29258814
-0.54693389
-0.24069292
0.15796474
-0.61926995
-0.2673461
-0.13303405
0.75660741
0.10439034
-0.15937348
-1.5228825
0.35882782
-0.55669601
-0.06398762
-2.7627317
-1.5008938
-0.68926489
-0.295513
-0.92509185
-0.50905815
-0.52427199
-1.6325735
0.2192728
-0.71331954
-0.64622795
-1.1815953
-0.67651594
0.017491347
0.47629506
-1.4739661
-2.1075611
-1.2253234
-1.702696
-2.215749
-1.0181288
0.13150088
-1.5343302
-2.1264591
-0.70029609
-2.1520082
0.46594366
-1.2894092
-1.2484006
-3.3918306
-2.2496882
-1.5127532
0.40084562
1.8126166
-2.5658277
-1.6618135
-0.22416554
-0.91922048
-0.05007954
1.2697831
-0.48594496
0.22946277
0.14617092
-1.9037518
0.79522699
-0.24049154
1.1179145
-0.43190266
-0.25400988
-1.3369326
0.090335678
-0.64014506
-1.2975717
-0.99663954
-0.38777093
-0.13316085
-0.005843135
-1.7620752
-2.3839582
-1.0437446
-1.5028503
-1.6722675
-0.003353045
-0.71581847
-0.072885911
-0.79071933
-0.076217032
-0.35915885
-1.0023902
-0.013217064
0.61211737
0.14844723
0.088786735
-0.69449563
-2.878857
-1.0091216
0.39063475
-0.30752851
-0.73170396
0.26722609
0.3497752
-0.8850417
0.58492371
-2.2317863
0.63866797
-0.69013103
0.26139829
-0.18001176
-2.7239201
0.64726708
-0.83904668
-0.42380836
-1.5731971
-0.20887647
-0.35242334
0.59358135
0.14279658
-0.96689849
-0.50911729
0.45731399
-0.2895578
-0.77111395
-2.4416272
-0.97433377
-0.90559706
-0.24822555
0.8228592
-2.4741845
-0.84340685
-0.48148813
-1.2787739
-1.1035968
-2.7604703
-1.9020856
-2.0467285
0.035115987
0.84507122
-1.7792213
-0.71469492
-1.5449719
-0.60637115
-1.3830602
-0.073196314
-0.9308484
-0.17380958
0.019884195
-0.57091559
-0.40862849
-0.37599676
0.38517924
-0.083365009
-2.1286319
-1.2733734
-0.59625954
-0.22585412
-0.33340501
-1.433381
-1.1910246
-0.64811242
-0.68859379
-0.43233519
-0.59565669
-0.221889
-0.52733737
0.17159453
-0.87127164
-0.66444138
-0.58815847
-0.084942389
-1.0205411
0.31286476
-0.28875076
-0.91716472
-0.46171619
-0.65590021
-0.77957462
-0.40638233
-0.52088797
-0.77428148
-1.1379177
-0.726543
-0.49801288
-0.2017416
-0.82555523
-0.44567411
-1.6228318
0.44592217
-0.76716614
-0.53154513
-0.59911187
-0.84150524
-0.48834966
-0.57032612
-0.11798138
-0.2260899
-1.1953274
-0.8434476
-0.84292969
-1.3877277
-1.2663335
-2.3510375
-1.3861271
-0.2351446
-1.846923
-0.46801096
0.09074211
-0.94432654
-0.069378262
0.19068952
-0.75668604
-3.4477298
-0.67033625
-1.8672065
-1.3618508
1.076857
-1.1241344
-0.48339259
-0.38850372
-0.41572672
-0.8338845
-1.8083886
-0.31282262
-1.382204
-1.5088446
-0.92073905
-0.96119219
0.55115322
-0.44206284
-0.02390781
-0.92633899
-0.5725717
-0.99590147
-2.2685879
-0.74482502
-0.18424603
-1.2350808
-1.3811628
-1.2940075
-0.65221343
-0.67100276
-0.49781851
-1.7081574
-0.39122997
-0.45999534
-0.52883435
-0.83081639
-0.84961291
0.29830615
-0.71579807
-0.40841448
-0.30880595
0.49745835
-1.3595007
-0.67378611
-1.076052
0.13937448
-1.429643
0.11261006
-0.16605519
0.54695163
-1.9659559
-0.42819604
-0.73069566
-0.20447261
-0.95420121
0.23779686
-0.45066205
0.42364365
-2.2302832
0.45093399
-1.3312931
-0.55409499
-1.4249054
-0.61273018
0.23530978
-0.4389208
-0.033688854
1.1787712
-1.0296099
1.5542084
-1.2155351
0.75917364
-2.7605399
0.81671094
-0.041860109
-0.29529689
-1.4890824
0.43669453
0.36389425
1.2051202
-0.61668435
-2.8596916
-0.9403487
-0.88055955
0.29034786
-1.3379783
0.054211072
-0.777717
-0.80051208
-1.1933959
-0.030118076
-1.5853615
-0.44608477
-0.31984436
0.85709122
-1.4391136
-1.0269101
0.34039822
-0.5087845
-1.3281708
0.34617534
-1.6717022
0.00088212
-0.98233877
-0.81995476
-1.9914169
0.26580553
-1.1405196
-0.66992148
-2.0618232
-1.1453621
-0.67266554
-1.229696
-0.15447879
0.075723642
0.63416001
-0.70656936
0.14518406
-1.2776109
-0.53127641
1.3136814
-1.2705185
-2.237223
-0.039456001
-1.5412286
-0.10738223
1.1772809
0.2862111
-0.65004843
0.45949141
-0.13065815
-0.42165635
-0.40379961
0.51053906
0.17397059
0.11041975
-0.03803603
-1.5136409
-2.1364955
-1.9207069
-1.6486626
-1.6995528
0.58480837
-0.49285234
-0.50938856
0.87432902
-0.39308765
-0.070448943
-0.10039091
-0.68703345
-0.91380366
-0.064799779
-0.31712082
-0.47992743
-0.47642742
-0.53421005
0.18204111
-0.63558749
-0.086781458
-0.31520711
-2.1554328
-1.069256
-1.0520876
-0.42837206
0.77025027
-0.35412588
-0.13166758
0.51652056
-0.44130918
-0.090889958
0.67706082
0.6329274
0.11741031
2.1023429
1.3583247
1.279868
0.22164272
0.88673553
0.46718519
0.1362529
-1.328559
-0.051338294
-1.0825668
-0.48862046
-0.64017795
0.095953374
-0.83164964
-1.2623975
-0.32123648
-0.36042525
-0.066623235
0.83650346
-1.3526364
-0.67769347
0.13130611
-0.065355618
0.089592038
0.74704977
0.32812413
-0.51279825
0.67932611
0.7503787
1.0604939
0.7187134
0.82773324
0.36725597
-0.54120731
1.0390119
1.0986358
0.71883054
0.25555271
0.15588953
0.78073482
0.73757152
0.58375374
-0.026141831
1.0033911
-0.30189578
-1.082852
-0.29185965
0.45176021
-1.1907669
0.75777436
-0.30542179
-0.15610986
0.7152664
0.18412179
0.77837762
0.6319833
0.3183924
0.84415708
1.4487562
-0.11991932
0.95342111
1.3021119
0.38844361
0.89748488
-1.7321002
0.35441098
-2.699398
0.10367678
-0.26920205
-0.062480178
0.69824741
0.63748447
-0.27478262
0.41565607
-0.48830352
0.1910768
-0.3519844
1.8895274
0.69651254
0.20712176
-0.06871599
-0.10384665
0.062904804
-0.71412056
-0.1850579
-0.030239126
0.17627062
-0.11034098
-0.24999808
0.14165566
-0.022124514
-0.035604086
-0.10134628
-0.22933933
-0.65039479
-0.59116689
-0.37231146
-0.20994403
-0.004095479
-0.192911
-0.95535959
-0.70256695
-0.56086266
-0.77538034
-1.2284052
-0.6403399
-0.541234
-0.29749899
-0.15218251
-0.092181158
-0.17139632
-0.84925103
-0.42877829
-0.47784497
-0.98401377
-0.18691279
-0.9175788
-0.27999474
-0.85807014
-1.2020714
0.10842535
-0.004271531
-0.49062509
-1.1128967
-0.097520496
0.12799871
-1.5487845
-0.12328725
-1.7748234
-0.86809679
-2.0922863
-0.18390427
-0.72762108
-0.45745201
-0.2909666
-0.054995779
-0.063392341
-0.65737315
-0.82062489
-1.5302142
-0.30264154
0.12270989
-0.66373282
-0.53424535
-4.3750582
-0.97810719
0.20389157
-1.8980462
-1.1471062
-0.41944331
-0.71515369
0.60730894
-0.15664689
-0.92108372
0.38086383
-0.22051727
0.37043006
0.48514956
-0.18781253
1.0841209
-0.92079593
0.34955093
0.45454035
0.64236874
0.52073772
-0.82656288
0.37235252
-0.86098671
0.43139283
-0.43175508
0.29601288
-1.6427332
0.21406349
0.53472824
0.46103801
-0.61192804
0.80628854
-0.42770994
-0.13242519
0.61591275
-0.54601918
-0.39469901
-0.51094556
-0.67416482
0.36285455
-0.15215705
-0.63795797
0.82542607
0.32287941
-0.71277232
0.24153511
-0.67695204
-0.45807778
0.95209962
0.59291906
-0.5699848
-0.4035602
-0.70425837
-0.73538614
-0.48182761
-1.1667096
0.00904445
-1.0426494
-0.12904271
-1.3221405
-0.52836582
-0.20440437
-0.7573114
-0.27984365
-0.33838943
-0.40565048
-0.020328748
-0.85655298
0.67219462
0.052680951
0.037219228
-0.94678233
-0.96444124
-1.340034
-0.70032354
-2.5246141
-0.89557986
0.4281894
0.26849039
-0.96527849
-0.84346666
-2.1287182
-0.90791656
-1.8604516
0.080011152
-0.16517007
-1.9118851
-0.77809118
-0.66928726
0.29427707
-0.3236628
-0.083601766
-0.12979261
-1.0274483
0.55883586
-0.9502314
-0.73007247
-1.052167
-2.0859596
-1.5925409
-0.77458861
0.01372627
-1.514399
-0.077356076
0.23822449
-1.2943909
0.080372444
-0.56393067
-0.81291577
-0.62246129
-1.1825881
-1.1771355
0.12979602
-0.62046693
-0.45707779
0.058183178
-0.41882818
0.57102794
0.36746414
0.56777239
1.5369314
0.99986367
1.8079965
0.13557376
1.9966961
1.1845751
-0.041856576
0.92756983
0.64215154
1.1904736
-0.45715175
-0.37749914
0.2989695
1.0118184
0.25211263
-0.40587288
0.4366053
-2.3764278
1.2695876
0.56718671
1.1195938
0.64935202
1.1131023
-1.2458372
0.5149305
-0.9570486
-1.0104348
0.11705968
-4.4863068
-0.45517626
0.14626735
-0.99290432
-0.40968799
-3.0182078
-0.04630357
0.21316345
-1.4526822
-0.10892758
-0.70836318
1.202385
-0.063462854
-0.2099766
0.064019062
-0.50399487
0.77105824
0.49205504
0.004910192
0.27023595
-1.1877592
-0.80322714
0.30142015
-5.1480379
-1.1098967
1.3358226
0.51716124
2.0810226
0.44248329
-0.050916166
0.15509644
0.21035446
2.2514249
-0.85417475
1.3066284
-0.56874282
-0.44220721
0.83657978
-1.054662
0.36615524
2.9522929
1.1648419
0.51768651
0.68324719
-1.0395358
2.4973264
0.034856355
-2.3455146
0.8518677
2.5009437
-0.38124877
0.21790218
0.71236007
1.4782053
-0.89309507
0.1242361
0.39925733
-0.14650501
0.67708463
-1.282349
0.18246738
-0.62741695
-0.8605615
0.95437605
1.2643857
0.2088876
1.2799905
0.78166501
-1.4512717
-0.99083953
-0.56125998
-1.4346149
-1.2348532
-1.1445422
0.25640787
-1.4198347
-0.29875696
-0.61158584
-0.78102228
-1.1193946
-1.0404274
-0.68740459
-0.64960339
0.90236136
-0.051424033
0.30955268
0.034284423
-0.07506956
-0.16623876
0.094211165
-0.067435492
0.63827935
0.25128206
-0.75679071
0.24541873
-0.30507611
1.2689946
-1.3091405
0.46419853
0.71362661
1.4950011
-0.67160825
-0.97695562
1.3774891
0.47028825
0.92042259
-0.003542984
0.44485076
-1.1002079
-0.57375849
1.5425401
-0.50399815
1.0757942
-0.62499222
0.71685447
-0.39376232
-2.0250582
0.510938
0.68258786
-0.53774124
-0.93919603
-1.1139784
-0.064163708
-0.27237133
-0.72174455
-1.4903707
-0.27207958
-0.5634995
-0.63785107
-1.0552714
-0.33360176
-1.2312705
-0.57751632
-0.15078521
-0.82739225
-0.52559801
-0.087723853
-0.80881988
-0.51962424
-0.36685833
-0.4149386
-0.61580575
-1.3622981
-0.91990641
-0.40618718
-0.9168714
-0.28784748
-0.55330807
-0.66399794
-0.55346964
-0.72539397
-0.53499948
-0.47563514
-1.8050305
0.52683473
-5.0922613
-0.87833144
-1.5695109
-1.0207129
-0.18474354
-0.13687987
0.16812266
0.4280568
-0.65129818
-0.93207476
0.49877281
-0.3470163
-0.42915509
0.13157451
0.2409444
-0.29952792
-0.1750037
0.069392701
-0.028479231
0.98767207
0.78548993
0.022513396
-0.83969373
-0.48410033
0.25713357
0.73048515
0.51085198
0.11398347
-1.1058333
-0.65740348
0.49247261
-0.7716297
1.0493214
0.99132615
-0.91081258
0.89350084
1.5973259
0.34423618
0.94848449
1.5031971
1.8569105
0.24765896
1.1064339
1.1784176
1.3405709
0.55189741
1.2620395
0.9767185
-0.15123944
1.031575
-1.0952579
0.069774013
0.052855604
-0.38004807
-1.0526544
-1.1610479
0.82556683
1.2024422
0.17453927
-0.39171975
-0.36333345
0.16790299
-0.080047223
0.38144218
-0.07601002
0.79785386
0.23385465
-0.048819798
-0.024437852
1.6317094
0.10674814
1.922481
2.2989998
1.2230654
1.8879595
-0.92827456
0.56508791
0.50525979
-0.63688454
0.18318273
1.9771054
-0.6637289
0.31252317
-0.043877601
-1.6021793
0.18864681
-2.9919854
-0.31458589
0.54598638
-0.13855709
-0.64146358
1.2261475
-0.02131679
0.50664937
0.40202909
0.20928239
0.5978713
0.16860904
-0.91607148
0.78765887
0.95047859
1.374004
0.84543617
1.3359952
0.2245799
0.010689603
-1.1631801
1.4683605
-0.96015613
-2.0620752
-0.66480276
-0.29919039
-0.66439446
-0.3083789
-0.40085806
-0.48340309
-0.87323617
0.42274287
-0.52318288
2.0264477
0.39538721
-0.12833239
-2.8769322
1.3407862
1.3793059
-0.005925119
4.1223835
-1.9184779
0.73996361
-0.51974851
-0.083809807
2.022606
-0.11067704
1.1833233
0.35571176
-0.21178382
0.35652913
0.97730904
0.35195549
0.20390537
0.93010247
0.13129272
-0.63926473
1.4610161
-1.6813061
1.649513
0.87247896
0.33070641
-0.75664915
-0.02343458
0.036281464
-0.37439465
-2.5165966
-0.54733746
0.030045548
1.2072118
-0.9605565
-1.191352
-0.032793797
-0.27912686
0.53161812
0.248304
-0.77541949
-0.4208493
-0.024554637
-0.69659573
0.11661451
0.41590421
-0.52498116
-0.125038
-0.37207294
-0.3651632
-0.73385956
0.78327585
0.90378416
0.62666845
0.10355797
-0.23416986
-1.1508588
0.6093524
-0.41777219
0.62639108
-0.39727159
0.83862348
1.0111766
-0.44546564
-0.83780164
0.04294895
0.38129593
-1.0567062
-0.14337829
-0.75601343
-0.66380967
-0.025934107
-0.32696068
-1.0605066
-1.4319769
0.3399318
0.017521356
-0.47368856
-1.673432
-1.7929495
-0.65617946
0.93761789
0.78122338
0.099808912
0.068405281
-0.13540357
-1.1288136
-0.20256858
0.0659969
-0.79981515
-0.22001211
-0.052028813
0.02169348
-1.1689217
0.38317088
-0.071575881
0.006045024
-0.8051095
0.47681721
-2.7840876
-1.3810736
-0.095651951
-0.61475437
-1.6343506
-0.35947539
-0.58580466
-0.15530526
0.012873018
-0.035563504
-0.31206712
-0.45364917
-0.095935993
0.019208218
-1.167781
0.27986466
-1.1883116
-0.99610538
0.19012393
-0.033413749
-0.5484442
-0.4697063
-1.3323289
-1.0072662
-1.0416244
-0.75959263
-0.67706118
-1.1092926
-0.57081426
-0.60190878
-0.11172644
-0.34837673
-0.97220193
-0.39334112
-0.27998467
-0.94229159
-0.18551986
-0.24621742
-1.813278
-0.52722426
-1.3886076
-0.40731561
-1.1521336
-0.67160942
-1.6292273
-1.5453231
-0.34098914
-0.28151353
0.53001196
-0.54530222
-0.51934923
-1.4306507
0.45951003
0.50354168
0.31738954
-0.013232345
0.53258567
-0.64718611
-0.29145055
-0.053221908
-0.11743604
0.77488914
0.1931228
0.67654726
-0.010212227
0.28682941
0.61988355
0.45169287
-0.40373301
0.22170777
0.16655075
1.7138627
-0.1069815
0.11454226
-0.009596004
-0.14911712
-0.2251127
0.30191916
0.16411637
0.10837649
0.12489465
0.58478257
-0.34866237
1.1875022
-0.59682146
0.78886373
-1.0581042
0.66339931
0.39875294
0.72224058
0.011804899
1.4689674
0.8692423
-0.56850099
0.51968033
-1.0655365
1.2814335
-0.12630984
1.005775
0.28128281
0.41721329
0.30740632
1.1337788
0.27295153
0.64778804
0.103087
0.82403092
0.61523092
1.5874027
-0.034278753
0.38552396
0.17835542
-0.46944613
0.94528759
1.1889547
1.5050784
0.27884652
1.0904651
0.51709917
0.54353478
0.18872645
-0.52077216
1.4010537
1.1032011
0.80918659
0.51965696
1.7600835
0.47559293
0.031259542
0.1417664
0.8976502
0.41283191
0.38025751
1.7500042
0.32080175
1.0154684
-0.93045955
0.85867765
0.81768844
1.3009152
0.62867936
0.35745943
1.2928222
1.7119896
1.0577852
1.5384482
0.80993651
1.3342947
1.3073205
0.57320915
1.0396689
0.050745916
0.72388806
0.54170269
0.24331642
0.68394674
0.67448409
0.11698597
-0.27948011
-0.50560255
-0.15663677
-0.39823356
1.8375746
0.25535834
0.37136094
0.53732641
0.29843853
-0.39667308
-0.55390884
0.82455579
1.524654
0.3274726
0.76009136
0.87940096
1.5376433
0.83661846
-0.43964545
0.76833592
0.92175946
-1.9020278
0.12370197
-0.96766009
-1.0998682
-0.040932725
-0.47877839
-0.55835649
-1.7883867
-0.87571457
0.055154632
-0.10094756
-0.93679398
-0.60953684
-0.52377352
-0.1358087
-1.136916
-0.31687056
-0.91455031
-0.27540149
-0.84878196
-0.51397527
-0.63519593
-0.73549663
0.24577051
-0.2691313
-0.51360261
-0.42446212
-0.49678588
0.11103458
-0.47106666
-0.45623439
-0.015339027
-0.30694475
0.57035687
0.85631019
-1.1161139
-1.777478
-0.19615861
-1.9212928
0.75866893
1.1422907
-0.43704659
-0.34439619
-1.7668734
-0.32105011
-2.0362134
-0.10651656
-0.70747189
-0.75374951
-0.57673001
-0.24888062
-0.90958833
-0.65324684
0.026681371
0.22664436
-0.44393941
0.081984754
-0.78383321
-0.14780654
-0.68260996
0.47197134
1.0412212
0.83767179
-0.36752104
0.58945848
0.79298049
0.8805903
0.83836871
-0.75624733
-0.20601478
-0.54678098
1.0081998
0.8511429
-1.8671155
0.44240171
-1.363529
-0.21753338
0.41037708
0.12624585
-0.78455715
0.61549991
0.28980733
0.23462153
-0.71516705
0.30276404
0.87156982
-0.17740729
0.85205524
1.3199891
1.4002659
-1.7615037
-0.059474136
-0.59385531
-1.1628447
-0.12854146
0.081686648
0.91223752
0.31290224
-0.38168693
0.84048489
-1.5475142
-0.87200427
-1.2203773
-0.47560057
-0.33684898
1.3436382
0.80329427
-1.1045635
-1.5963316
0.60974755
-1.2171359
-1.4675216
-0.068443299
-0.061650632
-1.3988703
-0.22930176
-1.2347339
0.6434981
-0.18533113
0.41293989
0.12830229
-0.51720154
-0.95370707
0.16492693
0.62359051
-0.11556841
-0.21542331
-0.88317816
-0.13839885
-0.13644335
0.39760801
-0.22645743
-1.0466465
-1.7854556
-0.63253766
0.76655997
-0.25410225
-1.0377699
-1.2232119
-0.27292671
0.31164168
-1.2288577
-0.85812466
-1.6478499
-0.73271557
0.28092526
0.17599095
0.022796535
-0.30277706
1.4318017
-3.1061701
-0.11831121
-0.55472207
-1.1463327
0.66110449
0.44004933
0.23594561
1.056069
1.1456958
0.85190349
0.50562275
0.7564014
0.32349126
0.95221659
0.66788854
0.54171508
1.0141772
0.30206131
0.35558722
0.57767389
0.69800804
0.40531081
0.99775926
1.0494045
0.70305938
1.242991
1.2216944
0.091376738
1.0091706
1.133368
1.0634603
1.1694292
0.31341296
0.27826993
0.38952014
0.82111931
0.70593122
1.1883797
0.72307887
0.95767176
0.39993116
1.0271945
1.0310148
1.3038186
1.3239098
1.0342466
0.77197958
1.4980488
0.62496145
0.88076811
0.89446268
0.8797364
1.1892044
1.0126208
1.0284779
1.746682
0.64960894
1.2507711
1.9364507
1.3204374
1.0529347
1.3934163
1.2927236
1.5089993
1.7988414
0.70390907
1.4390489
1.8446485
1.2424235
1.3522507
1.5518063
1.3719564
0.90156899
0.48239897
1.4255568
1.5574796
2.0735662
1.6323783
1.8817266
1.7379344
2.0360431
1.5994332
1.8861256
1.3871909
2.1668409
1.5088619
1.520497
1.4127755
1.7866115
1.3080921
1.5013476
0.76955124
1.3146815
0.96451737
1.2072675
0.76846827
0.92945915
1.0505057
0.59713464
0.22807199
1.0203707
0.67842525
0.38421903
0.45791179
1.1161322
0.88249255
1.1239567
0.9408416
0.98263318
0.74403638
1.0207429
0.57543259
0.72729598
0.8974552
0.90500869
0.98960966
1.0762466
0.75540317
1.1432051
0.71646328
0.45901561
1.0450939
0.86806156
0.87312333
-0.37667288
-3.3424271
0.45816524
0.77073643
0.8408128
0.67890974
1.4338321
1.1498358
0.63433801
0.73004571
1.180519
0.38242095
1.0901797
1.0624688
0.99718678
0.81982432
0.62166862
0.945292
0.56855012
0.17381757
0.27048763
0.030321476
0.38898925
0.48842865
0.72347923
0.4603397
-0.1068843
0.86186527
0.79002614
0.024529871
-0.1096928
0.035787352
0.82677043
0.83795619
0.69784241
0.91400901
0.072587479
0.83249842
1.3187887
0.25591403
0.69394763
-0.079178428
0.45530249
0.29403604
1.0439806
0.36578555
0.15943586
-0.85192925
-0.56701323
0.19617576
-0.034837993
-2.045264
-0.62254009
-1.2423143
-1.0489234
-1.5434692
-0.4289061
-0.25265893
0.46646224
-0.34120121
-0.31615631
-0.46594746
-0.51329789
0.39065047
0.50958631
-0.24179287
0.27691575
0.24862126
0.18993308
-0.70009607
-0.48058863
-1.551231
-0.82879655
-0.25557004
-0.99242408
-0.01584891
1.5590371
0.58523944
0.75203425
-0.26352387
0.30389397
-0.93162947
-0.29381886
-0.82438092
0.14614053
0.059472614
-1.2699684
0.39910044
-1.0629879
-0.53892489
0.055955445
-1.0172774
0.16993925
-1.9829603
-0.52642418
-0.67730705
-0.61307062
-1.5759975
-0.52675851
0.16789212
-1.4194674
-0.079939983
-1.0765178
-0.13494322
0.326843
0.64204463
-1.3560128
-2.227252
-0.064067236
1.2825204
0.33602693
-0.61423088
0.35454984
-0.60007279
0.33025884
-2.0109709
-0.76115944
0.29498094
1.963814
-0.32965912
-0.77106871
-1.1187105
-0.59558704
-0.97898025
-0.39569304
-1.3804033
-0.13536977
-0.41749437
0.36334831
1.011762
0.62172112
1.4038639
0.98732478
0.78449737
1.4533957
1.7479944
0.74002489
1.4382573
1.4906617
1.4846755
0.94567621
1.2787275
1.0034404
1.7518387
0.71372128
1.3215708
1.348988
1.6768042
1.6684548
0.72969805
1.4557615
1.4088469
1.2775412
1.5504215
0.75063905
1.2278306
1.5759008
1.3684214
1.6083359
0.52185111
0.81320336
1.3356357
0.57892728
1.41524
0.71322785
1.012499
0.72616278
0.88698407
0.91766918
1.3809005
1.5393344
1.5507363
1.5547296
1.6902892
1.5440064
1.5018598
1.3602984
0.85655859
-4.7147993
1.6673271
0.95575993
1.6853365
-0.31922364
0.88302545
0.36987521
0.55986208
-1.761933
-1.0499726
-0.073217754
-0.2736672
-0.28932517
0.40327303
-0.67881391
0.97699694
0.39753412
0.62911453
0.8318751
0.88088641
-0.27784429
-0.33428487
-0.18590803
0.14965081
-0.2975831
-0.97881685
-0.15352575
0.45045726
-0.69076352
-3.3947195
-0.58155761
0.19865145
-0.46941657
-0.79002864
-0.30888644
-0.23287423
0.20961218
0.22593355
-0.18079926
0.056637068
0.22918144
-0.36572517
-0.036287529
-0.37825582
-0.3917339
-0.36483731
-0.50788424
-0.58343731
0.081879594
-0.17096149
-0.98506256
-0.20956895
-0.28216495
0.3578349
0.26527353
0.27821069
0.33221062
0.38564049
-0.83306053
-0.063440679
0.11570351
-0.07182697
-0.69882074
-0.93764823
-0.69481624
0.1787503
-0.98892361
0.124444
-0.47927334
-0.11296872
-1.1057957
-0.32332353
-0.32818793
0.84090082
1.2424619
-0.4164226
0.55902478
0.54503878
0.57948814
-0.052503472
-0.033539054
-0.50521091
0.37833478
-0.69677353
0.9161283
0.77750705
-0.1939505
1.166191
-0.074888789
-0.47160028
-1.3704245
-0.03784309
0.070593236
0.63960805
1.0991962
-0.22741336
0.028378886
0.54256669
-0.012095912
-0.2418012
0.22322176
-0.074238432
0.55274187
-1.3993239
0.84052001
-0.66818171
0.26414215
-0.41723216
0.42042654
-0.52678394
-0.30033513
0.41528524
-0.73982281
0.087802344
0.53785608
-1.1970529
0.029474749
-0.13086829
-0.20493921
0.47189179
-0.9881518
-0.93300802
-0.92424395
-3.5453818
-0.60223818
-0.58389896
-0.65824636
-0.14140682
-0.39415462
-0.84580753
0.41355596
-0.079110418
-0.049929517
0.13127053
0.27770355
-0.05305725
-0.48104583
0.55571533
-0.74108312
-0.19489412
0.18322903
-0.063953906
-0.91674663
-0.41521379
-0.3573149
-0.081543101
-0.81539493
-0.66984104
-0.24723408
-0.55601614
-0.44513568
-0.61443932
0.62603489
-0.19096489
-0.11716166
-1.2487388
0.089044456
-1.408756
0.59009714
-0.4249313
-1.2885956
-1.0111683
-0.39235773
-0.09702637
-0.49535116
0.60855822
-2.0604019
-1.1229693
-0.54770461
-1.3517791
