1.262734203143788
5.12394922491853
4.514181847622694
2.9504244118338887
5.462302091103802
1.3790112248552804
1.8917063060881814
1.1062708818326117
-1.4099990540018625
1.7846369355841905
-0.28735328107778896
0.26281857941400094
-0.028793293470740555
1.2592731743996965
-0.7413046451394598
-0.5909858013316538
-1.524133643847589
-1.5122320513574314
-1.3781629118491336
-2.327799070404969
0.07633354913145307
1.7132242267509665
1.7980156807644696
-1.0603889444864236
-0.25478412858775007
1.4528881486976233
0.16085473708162634
-0.022666447189505112
-0.4787267059840757
1.2359842346551082
-1.237435791094813
0.2787309487506465
0.025521523578287575
0.3153151185026358
1.2256420924898004
0.0505719683385061
-0.23740852534451817
-0.02087092556801562
-1.5922830955811063
0.7429693708418224
0.717875765479003
-0.68850480303318
-0.9510881214801488
-0.5322039422617222
-0.05061040444016725
0.07040485111644298
1.5553138117254433
1.712039733633376
0.9413137651057776
0.21362985493817455
-0.47572383410861413
1.453447240179607
-0.10569026342255355
0.2923348795186858
0.6961156840139069
0.0980523644787096
1.0107961987755505
0.24838167095748886
0.9886049652797216
0.29091053736169803
-0.1118206744656599
0.2338176625736612
-0.3076173970143938
-1.3226282443284023
-0.7899162523853442
0.63911252874312
-0.9654802306029555
-0.7143821232931407
-0.6862266613567997
-0.45412226753550305
-0.420997233781378
-0.23959823013858828
-1.342197404064768
0.09089905432367254
-1.2661043475488096
-0.855780517445587
0.8945305094481345
1.4653001833545691
-1.1959210991408176
1.714683253765827
-0.6623394821618018
-0.637380088043713
-1.0156216867862953
0.15638062067528127
2.1674553797280653
-1.5025160622528022
-1.8977983908805922
0.2627615041567306
0.8342702451123176
1.4449461116125388
4.0063929434107735
1.8529166344833001
2.185813816368825
3.0125059291462803
3.235082886883337
1.9627975158470503
2.1307531108051743
-0.04461406882449781
1.8249959489574654
-1.7966421866505395
0.8748524205710781
-1.600513207988416
-1.9511057995593974
-2.1938097970815775
-0.32687357161105246
-0.6786711778842635
0.6742390826025122
0.06829662816318038
-1.4661448236141719
1.0526662449423843
-1.2175382738192388
-0.5659470753933755
0.13687003357158298
-1.281750100220245
0.7842876638997618
2.3536494777053103
-0.7887689301874914
-1.0047272877158164
-0.40919652092523495
-0.4144478883443976
-0.03622812280623411
-1.2283769453235658
0.11211092696849045
1.8826266038678676
-2.014663258048827
-1.2009379168938739
-0.5743872810670219
0.2286181517676677
0.8957486432280068
0.9214653207573997
-1.5558603165485574
-0.6579880665057849
-0.8487962671690125
-0.21942053669055012
0.1081740247906463
-1.2866933830418759
-0.49911490299242234
0.5901354352825875
-0.6336899377508451
-0.10892487342422028
1.3881242803642027
1.6772877859237942
-2.463722704131198
0.024944325467255488
3.0080942662691785
0.029649053295309535
0.03729137792461207
1.5514382400797155
0.2727229239613064
0.30535879834881374
-0.10609122899245454
0.25196661500345907
0.35810333979573983
0.90191420964792
-0.710893737774379
-0.4487013481750002
-1.8317639534447199
-0.5257362894037002
0.8588702861828128
0.3496994930641718
-1.091808465548226
-2.069891401315224
-0.29654742194835654
1.0269959644651008
-0.8274370635685084
-1.4083243072180016
-0.4866780475665129
0.05561875071851924
1.2271251118022188
-0.4400029966157927
1.282157998440573
0.9029160773400478
-0.8820415309261186
1.5151635975057922
0.35657860033341726
-0.7781415274477352
1.44593548507483
0.1635078599857401
-0.6506733170859933
3.402034286665997
3.0889380795906036
3.1618880043534063
3.8023721374159827
0.9266951530786833
1.0190252959130561
1.2253959902883529
2.2187363948445973
0.6710560217434227
0.3292701901534802
-1.767973031878197
-0.06029275289995689
1.380785665714257
-0.7769170876253704
-0.29068381485606054
-0.9808871269281592
-0.7474085947064627
0.9717790691597102
0.5505098985409371
0.2749780090517721
-1.7734645523013528
-0.7989392964063958
1.546986313289894
0.20013825512507769
0.5931210091631594
0.35315940720875383
-0.5385094003456588
0.24601345647052586
-1.8896828994631543
-1.733324858534837
-0.9856813950256236
0.4658781046842987
-1.6493698965206922
0.1871187139867695
-1.063290522213354
-0.7738883713563348
1.4432232822528794
0.502985024407954
-0.9949904757592136
0.39545459970279206
-1.4140348949473613
0.26670559517896764
1.0059693827695286
0.7559092210195018
2.0983938578473134
-1.917403986539536
0.25989819795916425
-0.844440255990653
-0.166724545014587
-0.22409071800474942
2.3594433434673654
-0.1565829777741608
0.3002913866010879
0.905736515255605
-0.04914232609965782
1.9557298571944701
0.7679446377453033
1.106541581864497
-1.7340672145523062
2.4538021673285724
-0.5665604203597763
0.25009054530254277
-0.7465540993272045
-0.629286592051027
-1.271707577694254
0.40044833296565296
-1.7915130468577294
-0.2294683955978135
1.356902882582681
0.6295445591860355
0.7061125473391193
-0.8197746703666029
-1.6615384849243087
1.1058477200076369
-0.4421390899627263
-0.17158176419433188
-0.15099740470015227
0.75313031091573
1.3524090647620892
1.5626468685105404
-2.1840175558579737
-0.018209822809659326
-1.5939436430427172
0.7349280644027748
0.04583811448425215
0.46356668181884486
-0.6320762195186151
-1.1220527330066636
0.802210515154317
1.4293210224253687
1.6973654515043628
1.6669068017715796
1.8400354183309788
-0.36184959236371034
1.4317670228282815
1.6793624268435647
1.5629846213049396
2.4428912378276486
-1.16973142207151
-1.7929162277498436
1.4831521349297683
0.3425088327599943
-0.4504529099644816
-0.916340050792156
-0.21358655177278663
-0.948752500404834
-0.44661138969205216
-0.3520173285585469
-1.03528375142957
-1.464946820891729
-1.9817133907295508
0.6387739490164528
-1.7165587061557637
0.6025614191807159
-1.1131487734268526
-1.0379075117979006
-0.8230694383472426
0.47875753502595964
-1.310821798410469
-1.0904240129016234
-0.004331284202872734
-1.0892732454130305
1.487649555775007
-1.8078649635044926
-0.6089129167630429
1.1425460721827112
-1.4355767915676005
-0.241464050626638
0.25525141354876707
-0.8734550606826824
0.19885224678193275
0.5163325119210671
-0.22396386069117125
0.8072226140171334
0.4454933194479706
-0.7194731795865883
0.857327615430748
-0.7556024645251372
1.1932626424556467
-0.814755114567804
-0.43954743931522705
-0.19702825568855922
0.6922206796949238
-2.2560607771379595
0.7008681367314216
-0.49854706209283406
0.12081405143881216
0.34450148816574155
0.6210263419385145
-1.87538484672572
-0.8498324242661445
-0.04230166553546205
0.4217637974579643
-0.6576884075888453
0.552820430653044
-0.2958102144244164
0.7070091183394216
1.1906995685237685
0.36817314995544825
0.8363963954627336
-0.7963439521060536
0.7983666231695339
-0.002461474575145034
-0.1413983585814891
-1.5339346347665357
-0.4500385966218887
-1.3546331427500815
0.770652125919615
1.4516122547777115
0.814016646104933
2.5301942544375504
-0.6390401636296044
0.5740861807966142
-1.4929348832167282
-0.05570745899288135
-1.560442018970929
0.5264285076154556
1.210058421881933
1.7845747797354776
3.409040717384021
6.052668129532366
4.610951594897997
2.6122010534239535
1.7849280968201224
1.2539993766693103
1.218718480773541
1.5540851344296736
-1.5942418510926344
0.1491698587121726
0.7478319443547772
-0.8120651004294093
-1.1290899854555465
-1.0462829509921987
0.9106874065859413
-0.7347157145397791
0.17802449279408714
-0.17169603889548046
-0.38391652985201385
-0.4388689461836759
-0.9435251209608573
0.7028039201260529
-0.9319420326698458
0.48756218881448926
-0.06519926677650864
0.726310961048813
-0.5485325736560472
0.9951130434037498
-0.033102284629831294
2.5325262383365876
-1.5225072752640771
2.496477964523071
-0.03609952491383785
-0.04694066672278002
-0.38487286986476066
-1.742089011985986
-0.5655674510484153
-0.49485506894686526
0.1970714067329652
1.0989136703089535
0.3209693479165511
0.2169183706848287
0.30603068088467333
-2.1144118330935977
-1.4856598089761628
-1.3934817534251533
-0.18824902097099544
-1.9087938290609792
-0.6184009602864641
-1.4989276605670467
0.3387547665016295
0.38093530680248755
-0.11628265529213933
-1.9549157329324
-0.24796109469767197
0.37711507975206887
0.8157952068770931
1.9562720746376348
0.9688845300041353
0.18472509589696434
-0.19039578559391146
-1.071389976446479
1.4088717831643944
0.4349954306016002
0.5604460469517459
-0.8072280700964738
-1.147502406000115
-0.36444026293202403
0.0015610792470544532
0.2793060243038912
-0.9261433082805652
-0.1727797772838326
1.349670172285918
-1.6015792444654706
-2.12854647906568
1.280391489512569
-1.3752392804361124
-0.30550798172361837
0.3073842527618588
0.18411323436338337
0.18343426759348366
0.4344223290453575
2.8372352104033465
2.065134109390051
-0.7510225371575123
1.1111621364442754
0.7389075159190694
1.3162044303905254
3.2211634693138507
4.283061886212714
3.922778905929002
4.046369557225114
0.36967692578544276
2.018967493327985
0.4218835982430721
0.4538356082931833
2.007515747661765
-1.0695416228336825
-0.7509446994207474
0.3875038510104507
0.8211363575920918
-2.8251906830684654
-0.41615268822522244
-2.076020732717757
-1.1646325729412794
-0.889582448398646
-1.1398491876559018
-1.1850725825119854
-1.1072108301347272
1.0652866863962394
1.2429480248687903
-2.3382936801694445
-0.3745457678779088
0.4593796273238181
-0.2289910616430146
-1.0458546447834387
-0.48831016250604536
0.38985216054375793
-0.18898050532802987
0.22053885151660896
0.05664617684078731
-0.2832854131503366
0.8379839246307925
-0.3994055844517525
-0.9299638762715019
2.2865510336276667
-0.03665899364912898
-2.235923946417251
1.3943640798368553
1.162051384569096
0.9258605249630001
0.556224595360633
2.158696584913088
-1.1289279126075682
0.2766625603004253
2.307749786286982
1.883335997918416
-0.4215664967971954
2.2334735839247184
0.5907672385039142
1.610090948964972
0.5095327680091142
0.38703240734557165
2.224950636719576
0.13490663392198454
2.051176774954723
1.6262042059073538
1.3480990809270006
0.09313023372611585
0.16180382653134284
-1.3661197312550244
-0.5341288924034422
0.7301436237383432
-1.6777663010205721
-0.41021645996440775
2.1514246711242433
-0.2517759767200638
0.9242471438689259
0.29123113015480456
-0.178506652098694
-0.06996077739863679
0.36133813155511596
-2.07360915315848
1.0101312216114242
-0.05690617567072713
0.6969195409125666
0.8588896573955727
0.03305207660068851
0.21334860260061297
0.15606782720737813
1.740980959507127
0.0818392359385158
0.4708899860105006
-1.3774942643152315
-0.2221333079881221
1.4219628522519647
2.4101695954738425
3.594342966203175
3.9102021859651304
4.071561651023696
5.8538831043022785
1.937555457263673
-2.305703923247763
1.31975025167656
1.5981644258805208
0.393763708080999
-0.7843449978251334
0.841348038937289
0.17411181061898684
-0.9592545305342995
-0.37650707138515177
-0.2590630111467684
0.03844605276078898
-1.9722234316372478
-1.0529413978369722
0.9270061735371367
0.022217797944166978
-0.7391297727095458
-0.45486746993256455
0.7906574418158991
-0.45430051288026496
0.6822384587135
-0.8614667016928422
-1.2189869407832032
0.096750730661254
0.033601803016581236
0.5013038725133654
0.9968139027894155
-0.40132082496455196
0.2777026452604694
-0.2064443447136699
0.3672139676323469
0.13567869183766582
-0.037932472433160114
-0.3374941881876088
-0.09421506550602132
1.0606797071285106
0.9138592792771526
-1.225250787136663
-0.4342370906577098
-0.684561467027553
-0.6337472588084588
-1.7404470555786342
0.8630692665945123
-0.6267536367845316
0.7251312049152745
-0.2833508203817744
0.23878341147877777
-0.8003135520509589
-0.3874436929590484
-0.5837876298421381
0.12723974055848689
1.6908663020734158
0.7665511402639132
0.2949088632401399
-1.3931271885222887
0.5489207983944827
0.7747386985064918
0.32367340049810966
-0.151553696478829
-0.16388110031218747
0.9321819024690987
1.3967480598589415
0.7754362915472892
-1.163924709022836
-0.8255108702400332
0.5291716107581582
-1.1347065159231275
0.03179957553543408
0.09639325353491968
-1.1226647714338045
0.6917419149622922
0.7062287619068639
-1.400132180839616
0.6437337288480028
-0.0725940113657253
0.6465343792052421
0.3360830374504305
1.3291104204293587
-0.27765112620672794
-0.43203467794556655
-0.8300619129162516
-0.7979488748005333
-0.8329609799367053
-0.01413994947139588
1.303616717057158
5.030151915043779
3.303764775507767
3.495107400264035
3.568013559156669
3.1928364287315656
0.9988299889644016
1.2359088148485657
1.2638735719412104
2.805775329702781
-1.9899382965444794
-0.251906025835268
-1.981647201106752
-2.8078952231294454
-1.2253572379975706
-0.28001294213906663
-1.0064548382049694
0.3498242463885259
-0.39748368163468994
-0.7317342156628832
1.1404186258757527
-0.5379297271775154
0.2795954352453086
-1.9076251002135207
0.08219477353781211
-0.23705427068484147
-1.1085959694805445
0.3394682085223491
-0.8015422652073338
1.3477873854200881
-2.2466793808802485
0.2987324132236205
0.34491003331496994
-0.17864160776054483
-0.5439550205345715
-0.2285747047406402
0.7354386791525562
-1.462515864030115
-0.6936772041029368
-0.7572371471744057
-0.9110426018252545
0.26852286061124386
0.12932047883189718
1.1860069121825083
0.4018778812857796
0.6492815168865487
-1.329386031846454
1.3574341458897163
-0.37479089999920184
0.9715606258300242
-1.785403170545566
-0.4481577298602683
0.7333876401296485
-0.019245154738270577
-0.9434014105475228
1.2066491154572225
-1.2604073154591668
0.405110389777753
0.7940849605727334
2.071613823869029
-0.3685399583914798
-0.09230804603530154
-0.3871372434374878
0.031692318709923034
0.5605263570744031
0.898134910138691
0.690231941310399
-0.5291472879318853
1.0238869500505432
-0.06727839013787221
0.570405794983102
0.6589806732454524
1.5083245308472706
-0.41822436111522887
-0.4796879362001409
0.29014179995711414
1.2054953596701448
0.08351419299822238
1.3584474562075193
0.6479034097496462
-0.03479855290197137
0.6371417442861815
-0.36999080559130776
0.12846248530562715
-1.0182464650992855
0.002300946059893491
0.8801712711642303
1.0060033941081135
1.1455429280009568
2.059497193247131
3.260371684536592
1.8385006271774695
2.7265648451866555
3.201920409212428
-0.19934584471789144
-1.0145465690821118
2.266248069871444
0.7467497736173836
1.0468615017313143
-0.22304600818670403
-1.6020172729308286
-0.9837456340865111
0.48543666612351066
-1.2514619599682684
-0.7364832707045164
-1.1507687413527008
-1.5883433643900797
0.4354749240019419
-3.5484184181742067
-0.45770123176495126
0.47747012017390933
1.9575154860467374
-0.8816115972636807
-1.2002777407486098
-0.6284594058326479
0.6638528461202869
0.02091133009389176
-1.2145126271735176
0.1572495100092065
1.1923902510086304
0.5077959802967005
0.12058781999776741
0.09131697958150153
0.6102836310552309
-1.0982885161374347
-0.4233001100427689
-0.21117369114430387
-0.6651548325273478
0.5097326641225377
-1.232544743005226
-0.5627668129823188
-1.2944021385411668
-0.18834742550888345
0.6675324715957827
-0.23961016738711916
0.5249297818045409
-0.17840331989868063
-2.858122350536699
0.030372176159854526
-0.24072200899638949
-0.08053923176021537
-0.27571447033363067
-0.862694636415971
1.6042633136071935
0.24385025691870837
-0.2435151943725451
0.7245132247231563
-0.11695277267267683
2.811698331517584
-0.258039595393919
0.5305611937624035
-0.6995108509823659
0.8951166018907768
0.10466718875458986
0.017550876039580887
-0.5792513614147261
-0.8545831708659859
0.19883656854817072
-1.3340733704063175
1.1498113610167682
-1.1741129258536778
-0.11993027390307616
-0.9643385614988171
-0.013037724263182837
0.4446608113936886
0.41774055233391394
-1.9667943252469475
-0.8709328743519813
0.7514936367368953
0.47459817002374033
-2.3576130064065888
0.555412131808925
-1.2010744989680704
-0.7019598225484299
-0.3669593573486132
1.8610110037286938
-0.8585376386320958
-1.2685052046701049
1.9176218279342618
3.2567796441281858
5.079747828357857
3.6575985750695024
4.486152472726745
1.6660857318546995
1.7094324550368476
2.859098149929389
0.7706946835107231
1.8912342826574169
-1.4991174702735233
0.0009451057896645576
-1.8939648006319423
-0.8449218100292708
-1.2641701910225178
0.7688343710593482
1.643933353691175
-0.9525430792533371
-1.2893190500651939
-1.927267169278021
0.4316426274528642
-0.3795743404923764
-0.6393008321372453
1.3509591471222937
-0.050276384697837295
0.4104997447728479
-0.027599100734194117
-1.5698567304838915
-1.7873886605467395
0.33352964319476064
1.8443919923742722
0.20303558347599354
0.7316591027856703
-1.0896432899765376
1.2601469175501054
0.9025239345224486
-0.6781848315536921
0.3078286980663111
-1.7696338732050443
0.49375447129735806
-0.5811965691754067
-1.4194357172158774
0.37156953310018825
-1.678545760856199
0.0679458994075316
-1.1409848395401672
-1.264614205291156
0.14066730490949333
0.21112522458593447
1.3078877631633554
-1.2853629517367182
1.7245988493454927
-1.4122958475418397
0.4599331145784924
1.2132068552325312
0.5301034982117929
-1.2129584365758386
-1.5869146395060663
-2.1553638094079557
1.9142260097912573
-0.3036244124743228
-0.842878321108274
-1.4121316811734215
0.24506908229631272
-0.2705296525531173
-1.9092240519875583
0.46316186569451073
0.41809152575996666
1.6937798998900353
0.7921361472888502
-3.0243066087668793
1.5704143088111895
1.0844113142295737
-0.5696044231101478
-0.26379951950856473
0.40823423934808956
-0.894947271788296
-0.047456914535877
1.1050467405998416
0.060330943583721874
-1.1708544588291443
1.23597305650838
0.16521174049263773
0.16951384237971617
-0.1369335647958661
-0.1532745205289676
-0.8017843397459999
-1.9380578971463718
-0.3223834779138983
1.1468395544474859
3.3875803994164535
4.68123699180931
2.6869795372175305
3.150846729640885
1.8744060183824973
0.17938362888381398
1.5423176013879065
0.8048461982536782
1.4319698754315073
0.40791536473637213
-0.663114596989128
0.39565460728782814
-2.416317635113902
-1.7517297330747508
-2.448871409658421
-1.5619043974309426
1.446662127929466
-0.19018894672923903
-1.3918518271099833
1.0205012915964136
0.7627403017188021
-1.0319355849602017
2.5569691920964317
-0.1404573199852968
0.4047265253965388
0.7600894671752925
0.43442743910723935
-0.6638245562846751
1.9590372586576552
-0.04608621404934965
0.864934388377396
-0.11662861902158711
-0.4211994937062291
2.1682533462723375
-0.09233635887374773
-0.13137244085569752
0.3793022199549052
2.9121687974982504
2.5234092902551146
0.9123432260962008
3.394582060883626
-0.8941482007746873
0.8117102350688938
-0.10323368762416876
-1.9619230330173023
0.17533310137362956
-0.1500960433289652
1.3958861740440414
-0.4134005021830203
-0.5121646771477504
1.3289032885831524
-0.10524493979334859
1.180457695818023
0.6741150232885265
0.22595159404457288
-0.36074754051335634
0.6122315243966974
-0.12241362305574055
-0.791041101879614
-0.2984689611463498
1.44352318730563
0.8187340167030608
1.032674043245784
-0.03725556621873805
-2.4543814603168173
-1.174682331489186
-0.2689434936282414
-1.3386860669111031
-0.6886890148427457
-0.759666019398322
-0.47550389417066424
1.2726887311519968
-0.019960783086101615
1.4099783843102913
0.12677696113739353
1.1837398900215548
0.7303107121856237
-0.5255021021968764
2.3622081766483296
-0.6348424044400914
-0.23099256160547665
0.7185200155310563
0.9916156439798472
0.9475250430317567
-0.6706735528200427
0.7256803706444618
0.7173497106411983
0.12743306121272768
0.979764196833935
3.365837721905552
4.900291354077791
3.6842490408142186
4.441872132814371
0.8944494154382459
-0.4906937818849466
0.02081497333024264
1.4367799542804873
0.5360190517329416
-1.328686355246402
-1.3518235924519393
-1.2713299433237388
1.1594889666823354
-1.7369215323414091
0.9160184204356236
-1.0929658032574703
-0.8163251042082001
-0.3069533372953361
-0.40067681963407914
-0.2948518068408023
0.2948344051339724
0.1046830521143208
-0.11003497441912496
0.7660738076204248
-1.3690882259298136
-1.0112397553478725
-0.6243236682674276
-1.23358244594059
0.14710656568891622
0.4997580212143438
-1.5915493241449887
-0.25049560606878796
-0.04716411310562563
-0.4401669781591533
-1.361760569732958
-0.31413453550736625
-0.682211141592861
-0.2591618478997242
-1.8694630335727855
-0.46894098644878923
-0.48053928733450696
-0.18081303700702644
0.31128498130543153
-0.0508125025870459
0.972474333913109
-0.5716414542112084
0.6292570321378645
1.1473113515488556
0.024577675713888636
-0.062278112329783974
0.8716669661617035
0.1420820700232756
1.026451000040421
0.378373748483945
0.7780447085551214
-0.17084895100112663
0.2708624733696593
0.4077596192840087
-1.432532585983712
1.1171229428537364
-1.825245255749067
0.4450959855454349
0.4635369064768094
-0.47656989046556736
0.3064224376700207
0.3044218055209734
-1.2644230938222263
1.4225867442447944
0.03909167802133714
2.1729850335203014
0.7367104956664957
0.10816567615215023
-0.6664607071125316
0.1135142793440421
0.3024328605662432
1.6867231652007408
1.49734153676292
0.4889055975013644
1.939915453072772
-1.9490427539018067
0.7281399096392697
0.9046805666432796
0.48432551341515184
-1.250793219160371
1.5034353000353309
0.7578208314112099
0.010511899420009907
0.05284646910281263
4.018387949725844
5.073365050862839
4.468558419560038
4.2639091089536505
5.412131424690098
1.7677662042966937
0.9083593493107993
0.30273851206957125
2.169989419476681
0.004233957847668862
1.2281047295542817
-1.2621023439184251
-2.027301202492838
-1.6425008429246273
-1.4921332202095905
-0.7676630328383491
-1.160867807392599
0.43512855490429186
0.7389490744325908
-0.4368992243539165
2.994941225074372
-0.34619868721215585
-0.12527258173402134
-1.0294822656362717
-0.4307320456607717
0.18636626596994746
-1.1019570632482447
-0.4395155014152017
0.2414808712004743
-0.5752937809509132
-0.6679669616139368
0.7000537541419661
-1.4948026102223262
-1.125003173787363
0.21525068294702063
0.42127026694814945
0.38396860140165134
-0.029052121557849225
-0.37683982701754815
0.9426187606015528
0.7113179828623397
0.0193723980006816
-0.3892530714249987
0.32479330705799897
-0.7022761601158883
-0.5796779658090767
-0.37542974489720415
0.24298314616896022
-0.3518706596046994
0.7619551878570537
0.9538416443950052
-0.18151904744622882
-0.623421023106065
0.9023721473013329
0.24809403111776812
-0.7097426450308939
1.1576939622050746
-0.7792255650979053
-2.498055560569793
-0.7949123089307827
1.901473125529195
-0.6049789515021963
-0.3698242575349047
0.13242391358815292
1.0570568393683555
0.15361611776576511
0.5830847613250953
0.11503868221520805
0.5593129288550875
0.24893557416083983
-0.42631218223392986
0.07333241031723298
-0.8118270083087438
-1.2631399746441077
0.2495695573882574
-1.2405434656042744
0.700219887347191
-0.3483551100260884
1.5003435117945498
-0.7461542443005046
-0.25914330283711456
-1.2027874882587963
-1.101363302916533
-1.6575555628132466
1.1882540648488071
-0.2999282727549222
1.2729142574860224
-2.6220276577094674
1.534171970807528
1.2757218698901518
3.9129122659285818
2.663632915388671
4.094259585814397
3.1948705280785377
-0.4964151424447575
-0.6343432597947274
-0.6138760907498128
0.5963942270595285
-0.004868298373474855
-2.3591808281734314
-0.13300333882178605
-2.8827688164703416
1.018258557105801
1.8549335303175565
-1.839337337784329
0.5236740871640561
0.057849306166717296
-0.8830598992498044
-0.9650275980374798
0.7281202900650441
0.3660118953398754
-2.7285832382118658
1.9558372044359391
0.592105841488642
0.3704760960887244
-0.6829800489071625
-0.5308727486602487
1.347263671670658
0.1566287259107948
0.47060700042919007
-1.521035653885197
-0.644788232813926
-0.008322609638179539
1.0270163217138668
-0.6901396276872961
0.8637996627094622
-1.4371139909945634
0.12751076240838788
-0.05331400785636946
-1.8003089556716096
0.20983789661609614
-0.9670457772664498
1.729065309259758
-0.13536226123486628
0.4120299182829138
-1.0518197192979237
0.20094694708486027
-0.7231205127960232
-0.7289793768683709
2.5197087437678647
-0.35562504745113305
-0.4593174471486368
1.0970761991359135
-0.6923929150028062
0.5389333282218014
0.578378894419801
0.6208631685168704
2.5008192717755198
-0.4635446821256273
1.3575905332521727
0.3636233409608469
0.4247874029728231
0.2627567633884672
1.8711675682528435
-0.2332155098916056
0.3910317613278207
1.452753164608446
-0.42557410022294906
0.9057222553088499
-0.21032467664461493
-1.2217020634922722
-1.431725141742239
-0.21236758374687226
0.9390434132113947
-2.3625414032081666
0.3361601499147352
1.0313237058634563
-1.2681524446172094
-0.48086622345439645
0.5985982444333807
1.1717911613798084
1.344816561380961
-0.5459827149830221
-0.6349071047067143
1.951105469847812
-0.5964268476303929
0.2996894264531206
1.8521051094132182
1.7315516152681427
5.75690512838917
6.368304364886314
5.207064836326131
5.811509262857769
0.41856837914357947
2.3087473623099997
1.882220746877656
-0.4196275694636183
1.3189109363228004
-2.589938552729272
0.4341055419291515
-0.7718083946406649
1.5838900617688847
0.08798969687686281
0.8405621250301217
-1.4611852673950863
0.3750367560990671
-0.9225964651488511
0.6913643505570566
-0.9644119631346538
0.30533006831343784
-1.2556755438882021
0.1844340146241408
1.8369811178300472
0.8340284201567709
0.013936110516658946
-2.534947252054524
-0.469700637373552
0.5932247787780809
-0.2647801129819778
1.506646683142577
0.24922023558735196
1.4595661885642295
-0.0018922900172056722
-0.04171765046184603
-0.647156224424343
-1.1548441400850806
1.0942532489467216
-0.5572180986187633
0.35965043369257566
-0.5378259307836015
-1.149678701056534
0.42208026613967775
-0.9372271061639221
-0.11545738637204744
-1.488728544328101
-0.5266591648675899
0.247691704623238
-0.1255815202094172
0.8649696059185576
0.0207923550432378
3.0835629978671926
0.19943651453946323
-1.792514458234533
-0.27293597807610553
-0.1669887642840686
-0.7712332119797681
-0.2665653849126592
-0.3930264112438873
0.538773718414039
-1.7337568517339104
1.2198423234895686
-1.5442178626328937
-0.4022926298558834
-0.8500720498052323
0.5969911651131719
0.1533403582175544
0.21469998548415262
1.1119452465209452
0.9150797487155069
0.0550006541496085
0.4933146776116478
1.9480476664099513
0.6166711137723826
-0.3681404103835522
1.2511310885057259
-0.11270981544436343
-0.9452721991452335
0.28379088570382555
-1.5581311791006573
-2.2783948669895837
-1.117137485505805
-0.09619878933688848
0.06349053118514045
-1.2856170422077082
-2.4255126112611274
1.3959470226413004
0.1944122621397728
2.883303150492991
6.5201229610554865
5.938445651837087
5.237747523565109
4.867174287348825
1.34957875519955
0.8851417748342723
0.6130938782245016
-1.5508873314569658
0.7864243663889119
0.31778400440392435
0.5842161121824795
-0.3875590474005993
-1.8380908662808237
0.28150798409296685
-0.798521953206276
-0.8003804255499003
-2.0419614495012834
1.4019787408803754
-0.0754583592184834
1.3778328872095265
-0.8068315515393747
-0.2042412269137135
-0.2436422840091512
0.8646176689693988
1.2137132011754246
-1.555617217299241
-0.877492434565549
0.8252197775061936
-0.6222707723294819
1.0490451573713333
-0.515182448264856
-0.9100664002278861
-1.6518403282723146
0.5421642636209654
0.4316898767573554
0.848485401436431
-0.13742606740474184
-3.816264461578406
0.5013350086273084
-1.822677768551904
-1.7030412123415057
-2.0202289161973686
-1.8372455541897472
0.14224601813102367
-0.4839000845527897
-1.608911471814349
0.013025521970906425
-1.0628101762595372
0.9727385702493794
1.511090726430667
-0.6025119239325292
1.3493968372518168
1.3595063809798422
-0.31268842968240823
1.8619475418274551
-0.8039326853414823
-1.7667893143623756
-1.5371877469979884
-0.7825410301132772
0.7352404614360898
-0.8224494570044216
-0.668099506572556
-0.974499270313121
-0.6881273058658657
1.5351738104505115
0.2840804503889709
-0.2118109107595958
1.4359325811117283
0.11973418632934547
-0.37311873898471415
1.2325385949476573
-0.5896077229729677
0.986891064479468
1.1004284794933579
-0.007745580236981381
-1.224450834882823
-0.06191292578932583
0.8323331043976212
0.6654786377578561
1.6443031010994549
-0.49321233061330344
1.0331260654280776
-0.860172179949515
0.6455290049654605
0.9051549396929826
1.1392181520974232
0.27814425739324766
-0.2913645936011383
0.259791269385765
4.379322741404317
3.285276765909007
4.727131348240954
3.0876187245271396
0.05821753660595602
2.0740941385784115
1.899388395959913
0.9823728292005955
1.289015369699752
-0.03405630290505335
0.3199201292074814
-0.073605996915486
-1.4971200090738597
-2.6789896482276716
-1.3735578368443064
-0.23995095831756091
1.1054741712678458
0.276227597125965
0.26410753962273803
-0.7640021253562591
0.09794846311688209
0.08931921204423392
-0.7604757993997198
-1.0008080203083098
0.2758379897169897
0.7126998063881714
-1.1584356673621152
-0.4174513449845846
1.3207513174632208
-0.768718085488923
-0.01922055774580164
0.33933405190169386
-0.2900781423186608
1.4510214942951385
0.26423763340812423
-1.5909718529499288
1.3306543661317414
0.02714041497206368
-0.1023241543132517
1.4495953126984589
-0.8752379885001328
1.4846191587237412
-0.010185689316744156
0.7603516628687035
2.951605650087216
0.5934731402321748
-0.04906099074287096
-1.1906328352078042
0.015336662269536117
-1.2221804210824336
-0.26809338980356046
2.523849841297503
0.374411764248069
-0.5940333955163786
-0.37347097511191657
-0.2819732480386752
0.8388575430742928
-0.2876115206223082
1.5330784971982787
-0.5556028568738881
-0.3822690117969291
-0.9364159014508399
-0.40495684534316595
-1.9984971313165332
-2.178676152662365
0.7408068177677942
-1.5959533618129822
0.3064601428577744
-0.5382647071639705
0.8899650120600682
-2.0017435434401425
0.490219099078925
0.4908456137010799
0.5249391837183227
1.2062772823348358
-0.46195607919860854
-2.6041414200919357
0.542626977493243
0.6621511362457391
-0.2475370997651105
-0.8225983263067702
-0.3835496698554906
1.1967545982952006
-0.8495225625827653
-2.04468100351427
-1.4853109781303828
-0.017485960807888824
1.680710184575542
3.239559176238622
4.624410808667888
3.272485882473152
3.2554644384422726
4.851327166942525
2.543582861270886
0.9447390996209782
2.857497137231361
0.9704621998372307
2.1027278159863583
0.723027515089974
-1.682709850775843
0.44094458419533994
0.9512567031488691
-0.7904481186567393
-1.290002470653897
-0.1953371064568653
0.03874862561538128
-0.16873245359743871
-0.23582337570486248
-1.3983700045592191
0.15356311526777333
1.44884500954956
-0.700427142902822
-0.9991529424279698
0.18018132520002414
3.046552391340255
0.923270318401916
0.11532909391319517
-0.34505992617041725
1.0850938385233653
-0.9487616829845511
0.4263510135323797
-1.22841769921363
1.2041436350319343
-0.045968011247757234
0.34470097754315887
-0.15063361154142865
0.5746126252995931
-0.4192500016755657
1.9964515164337537
1.287064030674752
-1.4261916556882275
0.2970838944752726
0.7997908078924922
-0.49329171499115915
1.1896611752799398
1.3136352722707532
-0.34192714501295063
1.139150497476524
-2.832921534949166
1.2444090767397238
1.1886261570370364
-1.0275093162680302
0.15855201906394256
-1.8432194400125685
-0.6444028175055597
1.2065623051730023
-0.0531079928249043
0.12378603742097664
-0.08355413844796211
-0.20966646037461428
1.362345647696378
-0.718972885348427
0.01297715438507241
-0.9321186121672248
1.013359666504909
-0.36852116246184186
-0.4598675375859554
-0.3732145207930267
0.17880682377014823
-0.9642144042534748
0.48312167046886245
0.7200265054302089
-1.1363814579654792
-0.22389391560475302
0.2460380433777856
-0.6147915386351918
-0.44599646119657
1.7020445962725292
-1.056853196909297
-2.168829728125408
-0.7713138742155037
-0.3882821122947539
-0.48775801073486413
0.08096964810798615
-1.0201096794945
-1.0179089560997152
-0.29245949360127116
0.8002518385948905
5.9063596073378415
4.761197716544942
1.9333186051732143
1.688674431546361
1.4664127292893705
3.1969867724839593
2.1043690843579466
1.578125505908829
0.707807849474785
0.026356443209277547
-0.2652087977821322
0.8731543426099563
-2.255416442968618
0.15456158963870426
-1.0551230821080624
-0.4390941047239296
-0.7006939860068748
-0.305129739529832
0.3530462811616908
1.3398093027453053
2.224094790493484
0.14921977379097667
-0.6884772212988484
-1.0566082263360692
0.7361699853876463
0.7719005618862919
-1.252531380133482
0.9697506909104212
-0.12969970974526807
-1.434217898316856
-0.6004291517489722
-1.043597912725503
-0.83744798999942
0.6969507781203244
1.4856432400665662
1.6459986887149498
-0.8536512373739695
0.3285122998625536
-0.8171288475083693
-0.07736976410760504
-1.3348985950727275
-1.2575347132554624
0.9154546701865987
-1.3641763145028916
0.6647056036136781
-0.5422472982504493
-1.984416638002979
-2.9391173664543877
1.4753139790113634
-1.8897579817145218
-0.1384038656678899
0.4835264407209352
-1.1603410465758899
-0.5098939144851502
0.49855163118841045
0.5370721663442931
-0.675377210367275
0.1706294114452816
0.09732917869637672
-0.8632615717671195
1.1534845560576479
0.28553521272408444
-1.951672804626125
0.5539307398343347
-0.4779046855581809
-0.031062480528576797
0.1403760185600794
-0.5202214214452547
1.5145101618099512
-1.9358601969407068
-0.3798043994533367
0.6045629122110063
0.161950263290638
-0.33464869298953404
-0.4539920770548104
-0.7358844556038772
-0.9655741680049641
0.9951037234652564
-0.572661908396845
1.9840847813423645
0.6777785181547804
-2.3350213855151654
0.6818367959582812
-0.06780507069735563
-1.2978286058703636
1.411366025495953
-0.5370923118784042
-0.3971925175033317
1.8288985331720338
4.386784838199301
3.1770767036534013
3.1473625504470695
2.7865114025933972
1.9226676349561087
0.6346997771716465
0.566435950746073
0.15151500055095482
1.3094270490028306
-0.8768976896737348
0.7550883342995222
-1.1649484951408422
0.12243436785523129
-0.128457548412342
-1.3000772972055263
-0.5984714965081225
-2.6563540043658738
-1.1041505650745107
-2.088775244034888
2.253602127114757
-1.4316426785589296
2.5562113063970227
0.6011835880340741
-0.5959555121758956
0.613251689383449
-0.8728030926676867
-1.4508656199732088
0.1416663367865047
1.0602828771574728
1.3616268675509304
0.5360285740080343
-0.5492730445462588
1.3148022549369172
1.189127440022517
0.21386507572761643
1.1458075949975413
2.3489652557753438
-0.7250777287022361
-0.9496617733069448
-0.710212386259721
-1.3261291011256848
0.7619667333813148
-1.5399053484208403
1.2208341419435418
-0.4841053451453828
1.5352492081817855
-2.5491384554535674
-0.06658821175214341
-1.2091325881479857
1.4318401155480718
1.4384893667168126
-2.6808178909405096
0.8785488603073606
1.2681382792705556
0.3913858073769978
0.7783404848265362
0.43335106422386904
0.8860076480392982
-1.0891291393480886
0.8401961129003513
0.5671302061312861
0.38884615314065696
0.7523116873512812
-1.0137833888933543
-1.6468273832944562
0.038122776339756595
1.4496935204650694
-1.1557825950618998
-0.17329243628502486
-0.7464411780504099
-1.157029472875331
0.24992063244021318
0.7486350636364968
-0.929097846252038
1.4550415588621624
0.7574942286873918
-0.36602029569555666
0.2945641678772753
2.1692496268799384
0.6195495166330109
-0.8417760181194933
-0.10759647757873805
0.30744497766395285
0.3117137902412934
0.07005088566637163
2.2015014959478094
-0.846518204984153
-1.7553796693046482
1.9266390087491672
3.57038511180576
2.285353019138742
3.1603566156637153
3.081402432316975
2.4520153485118863
0.3450867965194433
1.782519451200594
3.330569868979876
1.3943232388431406
-0.7221252054004071
0.25631758239947966
-0.43375931048224003
0.40823546653024634
-0.5862845277463925
0.1618815183637908
0.14704302070589412
-0.7371444531909361
-0.749441606019523
-0.5439726083703623
-1.3274511490362124
-0.21158919557532177
1.120389650068031
0.9082460007685836
-0.36198357623052024
-0.18316995610464307
0.9953804754794808
0.7772938212956558
0.8315891540249067
0.9622286929946994
0.49538991735247884
-0.2962254846433893
-1.4479126772331528
0.5714513062910167
-0.14574123800970926
-1.5786348553355
-0.4127529340942812
0.6672090618248183
-2.0718229195254354
-0.9178178554000846
0.5353134943931394
1.1863281880051513
0.9854891875326868
1.4296720490031416
0.23685649369393807
-0.448626846642051
0.8609314283432308
-0.6552106584885815
-1.3021810683846908
-0.9558832755396827
0.8499032977001528
-0.7829520012665647
1.0983656477045671
0.22348550665101652
1.0350437719718129
-0.9728840896167662
-0.8769625172612835
0.6369038010495182
-0.5239665271310363
-2.428950222295919
-1.4425443972830192
-0.8068357081940221
-0.9514189011815588
0.8123287783041404
0.4945610830269126
0.11402684848443032
2.0665236504563307
1.2082813344693488
0.9307994154426867
-1.5843866851687336
-0.0817743207082668
0.5350599372292815
-0.2578848673552199
1.538508420005012
0.43165079808323636
-1.3426314272113156
-0.9736527289086728
2.5160796890746835
-0.18829221558644463
-2.219621365948098
-0.49589606636601335
-1.8886625082264672
1.0012232409246111
-1.9799850560223935
-1.4827565112976497
-0.18848600870522844
1.3464144447157962
-0.21819008440775045
-0.9639714631612986
1.8736420218673866
2.9839578112797653
4.795377061370722
4.123494441516714
2.9120347292945308
1.3920347542921894
0.6513660913651119
1.924716535141728
1.399593890385274
1.4006406541392422
0.7944418590380365
-0.36595766272395247
-1.2490516883384322
-0.21102554985085142
-0.9243105311395474
0.11985068866611515
-0.08495115298785294
-0.022114990040503296
-1.639431196372327
-0.1127305506183656
-1.06702377256757
1.1311523133881114
0.9887067568687993
0.7281788936149509
0.2035681109779636
-0.43211619183601496
-0.6222137334267547
-0.18442341547919794
2.030817858780627
0.24395801410989756
-1.1151693496142376
-1.7995026010200046
-1.3716703527293699
-0.34054968504226196
1.4323059040977424
-1.24956703812404
1.2421909250363012
0.06366404721159159
0.2665733077234788
0.5785055330320004
0.7150440891459738
-0.19295272947209535
-2.3635621281325423
-0.6808356222007074
-1.077311612354632
0.5712748621890207
0.17478956307598695
-0.4175465630880374
1.9056098586375336
-0.7085719204105934
-2.439126971542282
-0.05401675200999832
1.207299485186635
0.07269804460530696
-0.37375598501148655
0.06749077740426063
1.649708675048256
-0.9727177577999335
0.06272954903436478
0.7338420956928879
0.438752402843317
-0.4044781530287778
-0.14802407536252754
0.25899580999529603
0.4480430517755848
0.12033596758933818
1.746402898635673
-1.6361523078597169
1.6190832091255734
-0.20344857727310633
0.011070014128489805
0.601517184309625
0.8181037195442519
1.0554222178964876
1.781887479277846
-0.3161475384486482
1.2358669938486457
-0.6224497762073739
-0.45571603981260744
0.044608032688700616
-0.7306045603464201
-0.12332018907499434
1.1402946199653825
0.4131644913235709
-0.4462664595778175
-0.7860346786928383
-0.9790150058559972
-0.012776929054197694
-1.8049527126983107
0.956477324602544
3.5815897206545264
5.246760942979736
4.116296712988767
5.127261754334135
1.2874858752245502
0.7223100045726096
1.1275071240171166
0.23550898522187602
3.9237240459569294
0.63233923414497
0.057399167454166136
-1.633366549556224
-1.257498684399831
-1.4996681678742094
-0.31952409182942565
-1.3459563479342311
-1.389577607673077
-1.612165346061014
-0.778771251271768
0.05887230871410361
0.09774977861225048
1.3573105165163541
0.7124793191342906
-0.4647326327191753
0.5384231936963538
-0.9234607052318704
-0.26003460020859215
0.6456778035686432
0.7048008099248415
-0.8220710001545064
-1.2239704654786028
-0.03788887960271366
0.5404042101442604
-0.7241760899183792
0.7635945810990257
0.5188940970318131
-0.9645612058907848
1.6491814765416288
1.2412856086952448
2.3620707173849307
1.488638699003181
-0.598870317360048
0.8456877581828921
0.98568421920442
-0.1501331521944378
0.7571134642186047
-1.8868994652767017
-2.1062548493090443
-1.7175967257580602
0.5074664944069275
0.32933307615316504
-0.358506000333036
1.4115144696049642
0.7914423731034125
-1.5094534614680117
0.0044143010834125085
-0.71933410318744
0.8691868054161724
0.2670536941040068
-0.9133825711833967
1.5073369617831642
0.006167766086230257
-0.5262714298534246
-0.21996333414665709
1.7968566410062534
1.007227812459572
0.15283995238496928
-0.9129844929165516
-1.0913147264849377
-0.5961410210218014
0.5876807967049924
0.8022658349104416
-0.46389067317033056
0.8021678113870638
-0.9438964499641764
-0.9265701866965828
-1.6108681026552178
-1.4175533074943234
-0.8774965917485775
0.09324554499059926
-0.9038653873142646
1.4754103826418166
-1.1328359665162406
0.18406084374908752
1.3113939011329696
0.36687694516327707
-0.09827848122866961
0.051252714516386993
0.6248837766165186
3.5605513108050104
5.411826051215356
4.154144437043998
6.290315935279224
1.4799892060800737
1.084834985701569
1.7491160259373226
0.3676664718740215
1.623899949267123
0.5790835845897413
-0.5751465819430951
-0.6358950873194663
-0.18316087252765412
1.8223163782630596
-0.6903642385107951
-1.093810511193443
0.7802280065193603
-0.2709830557749876
0.2542840844275235
1.6493502581346222
-2.069255910098343
-0.2083711575229201
-0.22981187257716498
-0.7908700093138616
-2.1617987513400734
-1.4033724998488517
-0.32750452401063984
-0.46790243635101847
-1.0277724206835948
-0.06528274409623276
-0.3445695471179437
1.0925481125567296
-0.6321329595377061
1.2919792984783856
0.12382203115401486
-0.5701110404948525
-0.6146043849870506
1.739968126840596
0.6282714255259061
-0.5445166689528104
0.4170577846146207
-2.301789741014098
-1.55286104349271
-0.9912802219375131
-0.6863625374604752
0.9916297534865457
-2.182866030665542
-1.2510581267287004
0.36063495335100454
0.7141523445504423
-0.481263974257374
1.953017198012565
0.6892494318978889
1.2637377167414103
-0.06763717263743516
-0.5651747500433727
0.11643703695589647
1.2598190828553375
0.9414530915341737
-0.4636921721272439
0.456801910256122
1.094726911827936
-0.41428565674623763
-0.08787399818175162
0.31840993518378713
-1.7963674432447978
0.31458919827290754
-0.8580996878804243
1.0814188080077465
2.046316336500759
-0.6521927355363883
-1.3395818544135059
-0.3558950324715876
-0.07922653734345103
0.6761189098495792
0.12819728669279393
-0.47575216305645307
0.26153287391945423
-1.068524141889082
0.69028433056733
1.5183940771192777
-1.1964931254639941
-1.5664908998552032
-0.363677542692243
-1.575308501549968
-1.252135186049607
-1.6458486438363047
0.09019844324283302
0.8948238724414186
5.191222553617994
3.5318266337522304
3.3101400846002034
4.554135074145983
0.38153471424882796
2.017437492319187
-0.08420621196029515
-1.3030953810713952
-0.44494133584675044
-0.6267383224429983
-0.3412087166783053
0.07732545663421184
-0.6897005256361882
-1.1938987962690493
1.1113357624972635
0.8230169876968636
0.5700130546694833
-0.11009400506221989
-0.04961099521995049
-0.738007858314219
0.1692243850430231
-1.1252245666807366
-1.3955698316684129
-1.6913564311100464
0.7020826865574966
0.16488041442142068
-0.14286952511499645
-0.39779739724066354
-1.8417334276825073
-0.0382108184081969
-0.3968770629677034
0.7890395903017492
0.4424550779473616
0.7424280162646857
0.24826675897093106
0.40716715765272027
0.761943469620217
-0.1921573515844713
0.80883060763804
-0.33088856942567385
-0.030563116992159342
1.7762402149313548
0.7365829055613337
-0.43218788276131476
0.48334125446223003
-1.34793269419345
-0.43281039946327504
-1.3248145562772033
0.3860311783354936
-0.10161069595349646
0.33119269403429685
0.9013618020774286
-0.4854229926499942
0.11991570215752956
0.3684142615146486
-1.164015315860886
0.12008877197077182
0.23531787772884885
-0.19556342495267867
0.45292728009493616
-1.4997332250097115
-1.2862458372847512
-1.0899894988552914
0.10842069473387737
-0.14385996718452568
-1.958056102413336
2.101161149281454
-1.7539065817277122
-0.18106014488319966
0.9688577187960816
-0.6568016306067562
0.5618464789628739
-0.9251013722458119
0.06217901161601398
-2.1529322893129335
1.2334537933031835
-0.13637121404025623
-1.5635556480115111
0.4885644826605503
1.490674572432777
-1.1285998369978814
-0.2849530940472215
-0.6249624300607884
-0.6754413335035262
-0.6563011180150053
-0.5140408194853074
-0.39788085563969755
-0.1788297876199496
0.7442297757489533
5.194110737660593
5.527510925532225
2.857324549569796
4.27693887307311
2.613497628242966
1.3308959212948097
1.7313964527566994
1.8546741214728315
1.5174111061993432
-0.7633204899107154
-0.6649364854496542
0.6076738466866424
-0.561188748999087
-1.0738870923527686
0.6400124070816903
-0.6663025737724594
-0.4056815930236324
-0.577089233933405
-0.9169948311716487
-0.12132228533339123
-0.060873263198632066
-0.9816829677792311
-0.18532951845851536
1.0257303064726926
0.6949876503673729
-1.4939737697760642
-0.5634478697491048
-0.6303484724742127
-1.2135168604693847
0.356509071631706
-0.02244141767201291
1.880032541196846
-0.06619216357000163
-0.8195599282198707
-1.2829656450534057
-0.36755042327015275
0.7317132895582762
0.6451071808273421
2.479726775946061
-1.4298222185233909
0.06321034038548612
-0.7623664084558321
0.43883404715589963
1.5014924688049358
0.7749469334446886
-1.4874009319587915
0.9752995554017847
-2.0012350450726206
-2.2456394571742018
-0.17222149411632753
0.8301639754237026
0.2719776713654491
2.0714535793134403
0.24302721352194762
0.020225012799128195
0.9162675824771702
-0.3463080005745645
0.4661592365165082
0.804773511383887
-0.9517981490619822
0.6038603410994619
1.8877332166367808
0.9933459480819606
-0.7514698966194742
2.4247288130004034
0.5459253481928221
0.6154000191570521
-0.13072556140407404
0.6445445264783897
0.09610039790746408
0.2873696100673835
0.08468179791131653
1.3503945286963774
0.9730350988103752
0.23678758383498924
-1.4713629185045718
0.01078018611642578
-0.8055033425246216
-0.5088204582139731
-0.15028742180036814
-1.1974496233633138
-1.7284261024455576
0.4134825447939715
-0.07079211130281565
-0.3514855777824197
0.16051726383076764
-1.0790125589612245
0.048974582130627
2.9694885024902384
3.337930405071686
5.744031058730948
3.583035763348057
2.7511767787944614
1.1628147305851186
0.43485351818694284
1.8768229052708745
1.0881665051016074
0.3680633018613087
1.3185564553027866
-0.9584027742049561
-2.449437844981687
0.722707058245664
0.3417756868651964
1.1543724345654098
-0.9076196507683464
-0.6664666437147362
-0.862777458831802
0.38121023259391695
0.8142634873586003
-0.07313925719990327
0.43358574256637994
-1.2401681856696816
1.1024340570751054
0.6993972527958299
2.2123478033864403
0.4841789424090628
0.5495350972327462
0.5612145309384934
-0.9056487565303583
1.286668303334863
-0.20591520437018118
-0.23406739459454773
-0.40984682361521807
0.1085156023411606
-0.557576313535104
0.3984536328070811
-0.24400033621921158
-0.18352145906462075
0.6750127859473126
-0.15930865912251116
-0.7306012684976552
-0.6014265572767942
0.36788836648500195
-0.7433897447041657
-1.012525663637858
-0.8680629298915289
0.6489217009552263
0.926831469081292
0.4533578483378584
0.9119259874460703
-0.3009787570412745
0.0794690598488038
1.2920828414889753
0.8863490832913526
1.023630556428952
-0.5374380873947666
0.10605825510414202
0.2726375918425967
-0.7575423852799833
-2.5582486684206276
0.5287921329560884
0.62659840057616
-0.2626680913180729
-0.7143394341272682
-0.44221258802028046
-1.9029502892524148
-0.35145383588732476
-1.132970118692318
-1.023604023360728
-1.2117564558060745
-1.7625501583275542
-0.9566208903710935
0.7682769824877113
-0.6656957850022277
-1.0328575967770868
0.6662049357338623
0.3753951602023491
-2.318062794162913
0.7878964001371619
0.30626787114674897
0.9357773759499513
-0.30765104532151166
1.7037931013243173
-0.285983141725575
-2.7209599963055773
-0.8762407911943624
0.5510436387716753
1.3541407629103381
3.9037447542653583
2.375121343943636
3.910757490266798
3.498901579584229
1.371762086125232
1.6631465498546862
1.3630815173012865
1.1754056519751932
0.45710057589779596
1.2483131256728028
1.578144220065945
1.543848762655223
0.3733864704805794
-1.883137306697072
-2.339365370645361
-0.8543034802077418
-0.3037499042836094
-0.5187952695528376
-0.053702973665264275
-1.2972562179560019
1.503853308840473
1.6603241557577846
-1.771940287075617
-2.2446171033610858
-0.2965891721379968
1.3183604746456323
-0.18317471164277577
-0.007594613796646721
-0.45742748104595665
0.16635323835634314
0.8171637279540974
0.17521446655030246
0.576928407792196
-1.5042466934443617
1.8954326584074328
-1.3350619091136555
0.043096934904616996
-0.2777865876222109
-0.08004993176054412
0.8904840761679709
-1.1546001004787043
-0.4543412255743569
-1.0310054475986292
1.327743706580635
0.24293285392184485
0.5660000149713235
0.9569200713057097
2.349766818827068
1.835653969404567
0.28655974709495563
0.40933542964233255
-0.7580997775432758
0.7566875087902147
1.1886433241333771
-0.6387155969738172
0.8731395214666058
0.9426147415727575
-1.0043861088164405
0.4330861951090428
-0.3685641954161244
-0.024643622921138263
-0.8827037918443178
-1.8378277118827888
-0.8528431101226701
-0.6164215719631266
0.39394889740079936
0.22928809743301964
0.50943827365574
-1.118780570649209
-0.8914092821164838
-0.6997964292955882
-0.0513394147190073
-0.5431252427390716
0.3614373840386502
1.1951819592945798
-0.8864576062540758
-0.610856539236288
-0.2527139330601538
-0.05399478182230499
0.9096952462399535
-0.1142028040386873
1.5142173000176653
-1.8293092980277488
0.8610970661344725
-0.04710058922643939
-1.1083930405606792
-1.964971795472917
-1.165167058762616
1.1929882447323
1.311616628156551
0.13952742056673084
-0.5490565440036893
-1.002729171155045
-0.2588557838278202
-0.5990826652648731
1.3489904317529717
