1.1074828428737602
3.7364302601282247
1.5867498098145079
4.813075986938167
3.4032182639361026
0.7988415582983232
0.9714266498913126
-0.2275215130778491
0.5076817772484841
-0.1556752309186484
1.0394727573371385
-2.4829560311917573
-1.1635200790584568
-0.7838367507359053
1.1499372539452881
0.13891048880825416
-2.275193148432957
-0.8579837846189606
0.3240627782351279
1.347809756331268
-0.16515721959229188
-1.256198636955881
0.26383221226956166
0.09151310665245657
0.09655052288044114
0.6460741630390615
0.6356180001061134
0.4714206167822513
1.3710591636641858
-0.3603684746515215
-0.9626489409193933
0.16095359553096128
-1.5893156816421552
-1.214969334297364
-1.1030487580590511
-1.701993221665606
1.3192993685618595
0.2585207753955574
0.790590768468147
0.6889609500399662
-0.2912232725029512
1.2308547464417836
-0.6082390624064579
-0.16785960591094679
-0.8765748358771431
1.1198829673936022
-0.23430611663370984
1.0438711422540303
-0.2747903007627419
1.0020438020228402
0.6870926618240634
-1.7157290262275813
0.34678488726309176
0.12136320886133378
-0.14159116473895755
1.2739662928887814
-1.27671034376753
-0.29214879129320603
-0.9964184914964807
1.0995754455983746
-1.1686787019188831
-1.7305458341447386
0.28531916781238464
0.21134124810246008
1.0275011849843023
0.9672416404770713
-0.046615339716641564
-1.5434523381390834
-1.0832415127301798
-1.542430614967403
-0.4279322124396984
-0.6324956249420333
-0.20233744998438857
0.2155183855249324
2.1690702777121165
0.7441228994582731
0.3026669822022319
-1.512176196994676
-0.060512475585461474
0.3968826051105614
0.6739038409934285
-1.547887596858447
-0.05893564108614957
1.968234635053649
4.0938566176229285
3.5442951917062167
2.0611170402132926
3.3030254448144625
1.3754789509550294
1.8393474759981048
1.161853191484962
1.999325405700244
1.0398537513994717
-1.3649040027676127
-0.9600914980694587
-0.0010927163253555486
-0.8737411977510361
-1.0126350017721795
-1.9766039845234264
-1.3199685191790778
-1.0674829537345696
-0.9286868809792106
-1.6094049431160775
1.4528238338195896
0.6187500562965422
2.4221668148139988
-1.8467719764322321
0.11541192843961667
-0.8271879115518121
0.12089530304768503
1.7833185119700843
-1.6546104036872649
-0.5050659278500601
-0.5905223511491782
-0.5697561579922202
-2.2525412705605907
1.3317728612183832
1.4080072770130816
0.5122108713330733
-1.320209792983082
0.008639576411323069
0.6114869058886062
0.05629409331480223
0.00835096318142367
1.558573370949925
-0.9942556275089893
-0.13660948612340926
0.7150325439509069
0.23797997981263852
0.8802740258369783
0.24210900005328512
0.449354791637365
-0.9472660649305601
-0.6283801028065996
-0.009246264631511208
1.1160464235241536
0.09394127978430342
0.5680258859417395
0.051041976084807476
2.2592128646955265
-0.2941619165299193
0.7316275054987424
-0.5610289714595765
-1.2329402633578022
-0.005208097501975451
1.5168465705208993
0.4316306719854728
-1.9754142800215395
0.7452815088901246
-1.2772134585754404
0.8332453101411403
0.6815603426799703
-0.46990919812356463
0.298419412152948
-0.4739807817466384
0.061054551529724596
-1.5090651924449898
-0.03774346416751492
0.8452648763600253
-1.3263940758168589
0.8465358751397125
-2.145020096787688
-1.193256984573861
-0.10455464477931292
0.2134232432163056
-0.4540712086388141
0.7913705618745966
4.723602863483867
4.265227798854967
3.3627458965043235
3.0921736498686903
0.8031390070732183
3.334301708419228
1.0787963392626936
2.167560184743364
1.3599813894898616
-0.5641424712190893
-1.130990892470199
0.35723094681801254
-1.3759207291769016
-1.249089607672716
0.03769727876691369
-0.6914310292298234
-1.044706187476001
-0.9080145527655288
-1.2798115507055572
0.34506318237686495
-0.1265361001524811
-0.9344969664285607
-0.17574681665229314
-0.15301292874498557
-0.2910379054205992
0.3981516459352926
-0.5247330607449088
2.9269371078643442
1.3166605548508235
1.1671962804127218
-0.9483148375413171
-1.8169936724124491
-0.46707728990452235
0.3992677994021296
-0.3434467826459149
-0.7571588941089991
-1.7000145449155335
-0.8350188177366682
-0.1570629823878871
-0.8184538888123697
-0.6724655967901617
-0.5924661018112601
1.7933614966698919
0.792255431360874
0.8669136041335567
0.2755140944647978
-1.3800499894113314
1.2051861328135975
1.4115096494237602
1.3407370921533928
0.6074556578078861
-0.33511934591481396
-0.3826472003307872
0.8113274460819653
-1.586270492025191
0.5482619164573436
-0.4909896729358944
2.1886332481171604
-0.28697936800752616
0.4240865974487027
0.25180702696930185
-0.7740542844293397
0.10752605221424139
0.14162799270998838
1.1744960631288106
1.0328669682342528
0.011558164321877312
-1.0246024713896693
-0.8761921376781325
2.0138919725496605
0.11668699650455477
1.924106745980753
-0.8904850787354547
2.0881738714018425
-0.8026867102179743
-0.04768942754404082
0.4683100497929469
1.21628960538373
0.40886628695887606
-1.4449098235990598
-0.8402195148423275
-0.9031538526689263
0.4201888716216429
3.6705098949582595
1.9936817603367025
4.932454018733224
4.500807792822521
2.7665538364529634
-0.25161943229809797
0.08028164536960891
2.004274302351316
2.23631277887738
0.6761768292980381
0.46964302366241706
-0.27699807069183674
-0.7940506505432585
0.2140236027182601
-0.6758665288802878
-0.08062342779874374
-0.8769322198839059
0.21840185867709616
0.8551621218994219
0.016857377875321045
-0.5533085181952953
-0.3304633101330969
-0.9333616717320713
0.4558399483367202
0.34405975706907976
-0.01126367725617583
0.21747534474111502
-1.6276376037464684
1.383403385185934
-0.3836787224131465
-0.38277495394089606
1.160938976915122
0.3760792772002345
1.9795401385748603
-0.7450410779877952
-1.178428554928171
-0.9878166014759077
0.13748170956566447
-0.24855574048730272
-0.7632090845706503
-0.30746557279343645
-1.047903945190043
1.4347976712218649
-0.3943708256538453
-0.4690601507881725
-2.3800002814435017
-1.3819662034432378
-0.5992636851359203
-0.16491919103441124
0.9522233980839716
-1.5500574923504165
0.5391589907197798
0.5368483851417647
0.9061827370141713
1.0302110761613006
-0.8877961163821914
0.5810025831673256
2.2743333759582915
1.2588391932694303
2.063896118282439
0.2323725851063711
-0.6368750518398916
-2.9100129236975674
-1.2281814989541
-0.7202553684964138
-0.40705262491714933
-0.978745242707623
0.17933899133998946
-0.019724906518423152
-0.1715184502569972
0.46705958584224866
-0.3943928595040432
1.0996089287356945
-1.0622269070863075
-0.3819584346356683
0.18659217905960318
-1.9362493791119497
-0.36353547340731407
0.7717166148061383
-0.4247534986497067
-1.6897360913442367
-0.8863325767189751
0.3966417003091146
5.40958484198222
4.599487849994597
2.886342167128353
3.088916235334805
0.11263792792052113
0.89822399436036
0.08293792543654707
1.4411715304653543
0.8361915154134554
0.03067330416549721
-1.7902320767819269
-0.5275768283268139
0.8136709191909293
-1.4197292264523096
-1.2697510067073743
-1.0597640021928707
-1.0458279803298163
-0.18036823156658288
-0.7301637185989609
-1.9676267160038767
0.7881691340090939
0.1727418262348625
0.13978190312181946
0.1053403709193975
-0.4797929965162697
-0.8382017170689255
-1.5540016649204689
1.5481429571231526
0.37146355296606587
-1.6971630290591702
-0.8452994705956808
0.3198512154624679
0.43985854779310407
-0.34577885428417526
-0.99393396596907
-0.3200064387165971
-2.108342810402004
-0.6619456499042964
-0.7915105940014064
1.3155176035092568
-0.14723162072501472
0.31914068091804604
1.5448071454259604
-1.0264494108273945
-0.4886513213266739
-0.38370291756216984
-1.6308645527858285
0.015044464900346555
0.9692392741386362
0.7754211866908886
1.4163250056337624
-0.4425299354425075
-1.0550161609638384
2.147467518056535
0.3722862081899009
-1.7942070162437453
2.796798598641353
0.2143646185630606
-3.0625899513184853
1.9721947310439614
-2.5098330035506087
0.25061085315648607
0.799716052903431
0.660630960678632
1.8410554442453966
1.104672826908059
1.690354870436014
-0.07118015149986133
-0.28097294351751156
-0.2424879367145073
1.6180839950019603
-0.6215009206880424
1.00732348388695
-0.8883742686989374
-0.9711739434808374
0.9560110129259332
0.7499630806529638
-2.461410283890343
-0.8030058804407967
-2.4889261573354142
-0.5716658475126148
-0.09323571217702142
0.862525096820375
5.0354157594036675
4.550852193516655
6.150558950651404
4.642374873222247
2.186822043596474
1.897761033920522
1.2170040951088077
0.5937838307024872
0.978112325238581
-0.9335830897710061
-1.3511545696100709
-0.003200214727038301
-0.3667812354132078
-1.1455813273937794
-1.430017013920537
-0.38421315029990033
-1.554715550427609
-1.362727435105009
-1.119184758774058
2.421829029204724
-1.6193419601999666
-0.6136716186552557
-0.6152355045151712
-0.32484176852704233
0.9909510965036719
-0.6104285913579053
-1.2740933127894725
1.5301955677024615
0.4977479581577983
0.6043121014853187
0.8905001947933936
-1.0847720560380305
-0.10521002838896368
0.7276421919230299
-0.4424821290786315
0.2289811457777166
0.6494857394173673
-1.1180880569627916
-1.1560305695224666
-2.1391163536505564
0.0661265718741347
2.00225027446968
-0.3694444890933701
0.07506507753962988
0.9363031301835849
0.580622259198174
-1.0186411958188102
1.9840025884147625
0.2038084679531696
-0.09964961430621458
-0.022955219803089594
0.3720849319812315
-0.33813326237940594
1.6155295924131807
1.1474535209043866
-0.14177894670110502
-0.05892926572900488
-0.8614321226717054
-0.8507802373504182
-1.298673315174273
-0.5497058008533223
-0.09951404321866505
-1.3172025212849638
0.9291650304391287
-0.8168706488888148
0.833074590126059
1.0502180447276788
1.3939950076662273
1.2057542786266067
1.6744008139216726
0.5636178339258863
0.11442260786036587
-0.9915927746589335
-0.3383135855540286
1.9070594823382863
-0.18235680138031585
-0.21836730308473806
1.5816295791786013
-0.1124490628626027
-0.48639237383965184
1.4888415804015684
-0.6712639664299229
1.7734018823182403
4.7250879329488145
4.626603004556581
1.7902696157361233
4.817318697681672
0.21538399727672497
1.0891245473944973
1.0754582086170732
0.8205977901728208
0.406358671119901
-0.666139091624129
-0.474319723119637
0.006925480011235288
-0.8545380007814514
0.35189698187340773
-0.49064888965565234
-1.2590435753021658
0.3619064856191584
1.8917177889109928
-1.3820481223196173
-0.011477106740216764
1.0673318949825308
0.7318339100380596
0.19478118496274982
-0.1243853927375704
-2.735234932551103
0.16196550772329277
0.2151600446987851
1.1094421159582655
-0.7781035848849133
1.6663209928348959
-0.27035416484201213
-0.383079237199387
-0.8759577433932756
0.9418598230176378
-0.9114466204432604
0.443537513288766
-0.9691541617447038
-0.19875119417344633
-1.5646306685255489
0.9850039166243447
-0.045260518198560834
0.38284408394260117
0.18372764565143843
0.38861833909679977
-0.37035412337584267
1.1054769322818228
0.36641575091783984
0.17406172072221351
-0.9269433093616823
-0.32104006141839886
-1.1396076179646224
1.3685572036337124
0.7070047622277007
0.3204906173537975
-0.6708615333682828
-0.8539190792522579
0.27450706708332434
1.9454895997800927
-0.13887814275332172
1.2876014715184556
0.12818774657610782
0.7232207816118054
-0.507962000871264
-0.44839733576925206
-1.2594700324047252
0.2293800254542615
-0.40016213164414594
0.31196147026513305
-0.9950590331685252
0.0729782375221138
0.022928296677620363
0.11099605792837046
0.4093851356482538
-0.07795522847275271
4.000826407536943
0.42071534655474435
0.07553676393155367
0.6458385381002509
-0.3901091513190728
-0.6312730804918275
0.6070044248054209
0.5566423048275194
2.30125880940374
1.9447014847820607
3.4925670062819765
3.761778037502697
4.166255703964941
1.9797886606371422
0.8574167479937251
2.0688605311142085
1.7708240558229775
1.6513130245531065
-1.7944278716663087
-1.0498625517402602
1.5270667602783554
0.501545402456308
-0.15006612532513153
-0.4933011177171839
1.6135950745122976
-0.15622167687339722
-0.818875753439979
-1.3194756347374708
-0.4737955420598421
-1.8427136844114163
0.5607590176262053
1.326697137841285
1.049959687865679
-0.3406264999106322
-2.7125153659996077
0.3651888873702695
1.34973669491139
-1.5514424400822389
-0.1977388325999142
-0.25248490489188463
-0.9958719400075007
-1.6979037465819462
-0.403097640461314
-0.6854493802477476
-1.9246419704855144
1.216635629789414
1.3120025718365207
0.03404597547070836
0.7084601984035599
-1.601033798054718
-0.0409701385695469
-0.14752148563174716
0.4462997536946218
-3.144996232874553
-0.47829385155556214
0.9242626832651664
0.19028932001614293
0.5483226708540677
-0.4474658368141553
-2.9510514228726197
1.1058958007024526
0.5328057531026185
1.485145262551729
0.0682258462300935
0.3960810884340893
2.4041773016805696
-1.8107690931266647
0.24101008179558298
1.5549030009197724
0.1812276616358691
-0.20380057465533405
-1.9280354308488712
1.482259615910087
0.8836870319127683
1.3971199650703612
-0.011881944857925339
0.46697103231647635
-0.2588784253219864
1.9108600377958422
-0.4782274477363838
1.6481342425223806
0.13752630207892752
-0.9261356712308114
-2.223084301888231
0.5428136372260762
0.6195210032406243
-0.8284118971747443
1.4373474226327487
-1.2934705088390046
0.8022157743383848
0.9359200438022133
2.8593681126207375
2.8188386480589958
5.963306703422979
4.460181534569546
4.029198662512814
2.4112987081435375
2.3079846217388207
-0.6752232327793086
0.15813508527563114
2.797619107950226
0.10116895760362532
0.1034561182186049
-1.3006741091916358
0.23417784279601978
0.7681192583123281
1.9377433911770108
-0.4666761128808654
0.15478969131662895
1.6655465788426476
-1.702214180544362
2.131333090026288
0.4018631633182618
0.1102350579623507
-0.7960967392770004
-0.4800109031830648
-0.7903962392585373
-0.6546191044809146
0.6097759457530113
0.9536807420243365
-0.9671844638553004
-0.7869210584824572
0.12718145742327083
-0.9887867956138781
0.21524767268878453
-0.5025414260072298
-1.4725595004081884
0.5020307445672164
-0.6342903561924101
1.3235425850134892
0.017329024372609303
-0.686990978453192
-0.3756325415286712
1.4640755848642675
1.74513830636352
0.5614968893203341
-0.6495770482796668
-0.22651532102997227
-0.00791607158958714
-0.31877423747957156
-0.1742526652739707
-1.152641985996938
0.8847502585058892
0.9338031441583481
0.047874287792116874
1.3830884918680273
0.7304947361632951
-0.8499690270595102
-0.3545539463517267
1.7217665775875135
-0.4251288382948917
-0.5377575610340516
0.9471219611282213
-0.05625789888519697
0.2690229348289512
-0.6651085401117933
-0.6856394082578614
-0.6926088543613755
-1.6296659596086807
-1.0868485384588917
0.5605305211726047
1.3202871716766431
-0.542637663532507
-1.3959437560036196
1.1436249045072946
1.290807129673011
0.6041227087639158
-1.6732752892499543
0.28969242977115034
0.449865708191208
1.197464759415257
0.1775429075465722
-0.8859790199228204
-0.36408108048054766
2.415516623293
3.9782794922384577
2.245762719216764
5.077715507056997
5.010097353135199
3.057584341095529
2.5970364914336077
0.681375998152901
1.8707729160069393
2.089345708399215
-2.1179595520083025
-1.7527946762101383
0.01590797539494552
0.12547860527233007
1.8647483153757762
-0.7525281542700215
-2.3552477555883655
-0.8562569717445936
0.2485772027517672
-1.1404765249831428
0.05193928521961483
-0.6546348148351735
0.9894028325896284
1.217092382305782
-0.9000144595440891
-0.42839932379633694
-0.6828781011800088
-1.7220309461165835
-0.8387954850224062
-1.7295010383236937
0.7635358494681282
1.255715151127942
-0.16647732399630638
-0.07857718487185883
1.0738272228418984
0.5056864319302754
1.8447994205341134
0.443609426515889
0.955426124634134
0.30417183711307627
-0.0437392129226314
0.6626602691450469
0.7277317062070927
-0.06736115986172675
-1.0898768971793937
0.41347817988589186
-1.6967892870074877
-0.4484876726955743
-0.8773808415358515
-0.798771250379219
-0.87725489288085
0.3469014961216971
0.17696422922994687
0.12929218101227027
-0.2893318730871142
1.1265286784773711
1.027884542640166
-0.08745084547341944
1.4904177902221711
0.02507626830908566
0.25398345444970793
-0.6610937729017279
-0.4222867704433294
-0.7942663057694626
0.8578706572126009
0.05512922303739509
-1.084610439665609
0.6802761465644698
1.5889353210914237
-0.9396760180413545
-1.173186243570002
-0.048798572948480896
1.1495328090609638
-0.2629622390467803
1.5315384538241457
-0.9513237713362622
-0.07235931655345224
-2.0038807631919
-1.1768465335814733
0.0016657754419692195
0.029628895850447923
1.4691165109636994
-0.6587989751109691
1.5668925795772206
2.0774800638627675
5.0177804823291
4.8197527933854
4.5477288633707
2.3552069249539582
1.26320663822061
1.2776319949440351
1.1687762277103204
0.8608940811150837
-0.6614320877331851
-0.3477483511649748
-0.13217737321083767
0.8806819179929921
-0.0328992830329838
0.7883485581363723
-1.2046767296971397
1.1881271741743458
-0.7470149719144601
-2.431066160747423
-0.6455901913801292
0.5671082626898497
-0.09335877109064218
-1.527502090530769
0.15101833468451756
-0.11280038850947391
-0.8330656215962303
0.3229376477753928
0.04156664985696537
-2.0626626133245027
0.6875312154833492
0.13686928818576494
1.462807518876534
-0.8524991073815696
-0.3656868345652799
0.8475909177818833
-0.9078531504955542
0.9512005171861874
0.8010373341063247
0.4366348932249919
-0.16839756629326413
-0.8646228542836647
-0.7686264986659543
0.2819209070944607
-3.0836186592088657
0.0754269940958312
-0.6965217787410667
-1.0320261417754735
0.6730871984989807
-1.378472369501738
1.444621243940134
0.9324403144719282
1.372395039258851
-0.698286523371829
0.3415770010974869
1.192909752018128
0.18461458271679615
-0.8087225905416706
0.49159128774215777
-0.37049867996195696
-1.2588062077429718
-2.557552855296885
-1.0017645863116837
-2.7461465484272796
-0.8594401440087777
1.3671507228248725
-1.8402125719948748
0.34969990050171734
0.9042901815040972
-1.6247537254138473
2.038410017497544
-0.2785050426263404
1.1826943142407893
0.36181791236078675
-0.7082578981536058
-2.8622745034594774
-1.0259941991884225
0.5671455364366698
1.3873335668284845
-1.6864625612566737
-0.21787883863854268
-0.332439478206797
0.5854667442198916
1.9256325387392406
4.143891631882719
5.292232850201103
3.783267429697685
4.685521749887536
2.1438194355066176
0.4049007029599745
0.7047662310329599
0.5687777247122989
1.894012035907938
0.29423752170962253
-1.0020139294912263
-0.2873448019154447
-3.6203523897172287
0.014572719603815038
0.36764597799111254
-1.2759276581770378
-1.1144061700455237
-0.7917720480865237
-1.2390450808602784
-0.8365205251972564
0.5345409070968481
0.943664806480512
0.4872582613982494
2.8726221766251485
1.11574290499248
0.93727655659124
1.057816635823794
-0.11371556417587701
0.5997632587090148
0.2919461875356895
1.0839990728868678
0.007086155986983977
-0.48768934907340267
1.3977412982385813
-0.5154621789420106
-1.4122213661612604
-1.0396198643819654
0.7557550243983482
2.9159023288638153
-0.6714270585082265
0.6662228732393777
-0.07528303078225201
0.8866692856127757
0.7204858330811591
1.1817343594794714
0.48632789514446384
-0.9011886365752388
-0.8344058720939278
0.15633990351728355
0.46446577444039155
-0.7907588157489491
2.109645725024139
0.96976213748541
-1.8945001983421939
0.03309843652934745
-0.8130588356649552
2.2424222784953365
-2.1914284660202434
-0.022587857107678577
0.2955727057258326
1.0537351395613046
0.2772788142649424
1.6660151729613843
1.1259013467166683
-1.8419620737613127
1.1372970961974915
0.1496609051627754
1.4049310263265604
-0.370638363446549
-1.163431111496678
-1.0609881668337735
1.3316251447733924
1.1835646272927267
-0.792692722136306
-2.4099438175476307
1.1378543848517626
-1.9623660911079144
2.4167928890919015
-1.4553932686311326
-0.022427578712270226
0.09131030948924149
0.13152548694339555
1.7451009265116193
3.858884060331438
3.25009228399654
3.3946536959584446
2.9724542646386887
1.6630839423788761
-0.38182008503848275
1.4537237585288016
1.2498466801694583
2.301590131270148
-0.8276746763062333
-0.00024294260500024034
0.00643262573950909
-0.7531525442290031
-0.7637930885393805
-2.090022068883344
0.608214489586562
-0.8529728043554257
-0.7417395532933713
-1.8263236052114937
-0.922752543361715
1.5747297652685888
-0.023788593222392906
0.13918427583443294
-0.30540895213376446
0.16694483768295065
0.8255249760627918
0.32530540856568324
0.03906568255469545
-0.6557181974724142
-0.311463202698956
0.45660069893184974
0.0539428839331789
-0.06507839238098212
-0.38744102119316276
0.3984422032765485
0.7413220738193755
1.017074716687626
0.3034005766815087
-2.0583642168229073
2.250103699533727
-0.04068603119433054
-0.2676924995771886
0.13627252539755524
-0.8000211720624464
-0.7546411822276994
0.5989732161852209
-0.42257526842105064
0.08206273317046668
-2.1414790259735463
0.06984622545037966
-1.543265974457364
-0.45753054129827736
0.10634734899469628
-0.703157511438868
-0.5259776205460952
-0.34795100428901476
-0.918156701159117
-1.0382739468561373
-1.6719651901745265
0.297501038855762
-0.766249012227075
-1.7463337165767887
1.5347505661098475
0.26547298294168353
-1.2885097484510744
-0.4572623596376072
1.0032627460463723
-0.039341830015877016
-0.3261996603252157
0.5722256681366829
-0.3659579415811216
0.9600883519159453
-0.6146387265296112
-0.40497108232025225
-0.14776800716633728
0.9370955798349841
0.1931819566507707
0.17946439364643135
-1.080332731194942
-0.7347058948065385
1.2530159404417052
1.0658116127803021
1.6401806012592257
4.416470517705928
4.306957711641821
4.302877669888572
3.8792765447884405
1.3088230710982791
0.3696890433784979
1.2827199389607853
1.4443882794662226
-0.8443523748812529
0.5389413917708148
-0.770280697645025
0.9320083491010844
1.148054074861414
-1.9212361303210674
-0.5268933100699549
-2.4419297580812107
-0.7339013441147384
-0.16511728793257047
0.45785542229372644
-0.12751987143748283
0.1876434611246232
-0.8905619351341857
-0.050388286207742425
-0.31365558197762333
0.6037076982842533
1.3167632119374408
-0.07938226528458803
-1.6054873975739994
0.210829818900642
0.6657937130602015
-0.9570921004193997
1.4779865438257527
-0.5153774825469516
-1.0217211689298826
-2.2906605955652
0.3791940548725501
1.8624661126445397
0.4422801647743081
-0.6876825293658082
0.2843055490603381
0.7623983816814983
1.0995359031196552
-1.2512302413302399
1.728731684097097
0.09796703633913806
1.5219950477556135
0.42357767413137204
0.43071069796209605
-0.7181411511366413
1.4151330049592996
-0.7754935706434396
0.40167748399804626
-0.47017624390311563
0.09451130767399056
1.0806427968021322
-0.07193735085898856
1.2333822034550963
-0.33129857527873585
0.14075776551857586
2.0509849669988363
0.12127016157732352
-0.017298259008139825
0.08855833215674794
-0.27064680120984447
-0.8042342240731308
2.11466232005879
-0.5132061158596728
-2.0736073867237965
0.08734554469927339
0.3347578345029236
-0.1677029168778073
0.06025446347496641
-0.05485329038132783
0.5770931573217377
1.0207442217291873
-0.04135596943029127
1.9662398848653697
1.1194875961458048
0.04554247228726899
-1.3689948323515924
0.21017883280349597
0.8179358800442535
1.885051853411381
2.742422762871578
4.532652712611842
3.901645661051647
5.428221186406608
1.4067815329524556
-1.7996984802967377
1.3305435877323377
-0.9499108192224989
1.6363752780875438
1.7052260253362828
0.5089525092034889
-0.27073605869155315
-1.218913850917798
0.9248858140553172
0.16373339630958592
-1.0241608344780215
-1.2506099938919901
-1.491773930082246
-0.6206464816864075
-0.3045456529294292
0.29453325577437234
0.7657567644314668
-0.48430535310142153
0.24869645666782375
1.4081074759008994
0.478771706883369
0.4382501148752897
0.1906277367261084
-0.07065731121267574
1.006996829544811
1.7101213232159291
0.6905451099196782
-0.3122743248714346
-0.1569433570909767
-0.29018963530113473
0.8433382124758785
-0.3878658747772217
-1.2697362236545902
0.4404499692891707
-0.02171005672406076
1.472745384165434
-2.203800820988643
0.33100271566784906
-0.24688356476106352
0.7414904367861976
-0.31027930372767787
-0.5058591950386424
0.9719082250190553
1.3931277030890505
-0.007742204837340699
-0.24327395835683596
1.645469957769381
1.1595774967244115
1.1713664690716608
-0.28061335975797586
-0.6040835651337318
1.6891109973150964
0.7951773558939956
-0.7831363360992456
0.04876253497764539
0.1854568013732018
0.1295122310491531
-0.3915388270868004
1.2474634188049307
0.35735412245232917
2.4752664131339612
1.1375321116274808
0.20272152898178458
1.3263688887728369
0.5810635757268467
2.406585601068357
-0.18471552988282922
0.2362771174714093
-0.7269449086788351
-0.2596544614162418
-0.08320385384652779
1.341451205910295
0.6846289603009984
-2.300659632007421
0.09686290669424709
-1.0380837996980912
-0.07725549387104103
2.8218004523727855
2.2022599047503366
2.2888727217947116
1.8555847628802495
3.3636315791071203
-1.1693659207474991
-0.8840348260039946
0.6535768959730912
1.143103652410566
-0.17825353827116053
0.10391395409822946
-0.14754321179092192
0.10070276654740618
-1.5431031606320453
1.760712822958988
-1.5672486482094696
-1.0187561270090801
0.2753874869552431
-0.49835811343506825
0.34711224414048386
-0.36209781206398295
-0.8453693659271677
-1.7755817505262643
1.7875675968371323
-0.4803088514009679
0.29444809416238016
1.8547548130921871
-0.6827185070442727
-0.3049539041683525
-0.9101471881890999
-1.2736854770718586
2.0169223950395625
1.7023185839761485
1.39470215679628
1.0038927837521792
0.8392487129293337
-0.6145127976728337
0.3112644286085056
-0.24266965327104578
-2.6957389581413693
1.3237343188085795
0.8212784389334528
-1.109891443265504
-0.07341842828621681
0.9061194155639553
0.23126875964056337
-1.6152953121981415
-1.1982078378629544
1.9826695753066657
0.30726422719572727
0.9140445514566271
1.5969176054953726
-0.49985850540661636
-0.14484465164160826
-1.9805144083933688
-0.3211286387105547
0.2910568762441116
-0.2756224107759763
0.22453744043657203
1.0092194374005368
0.6876265530717091
0.3351079177351359
0.05389131400884378
-0.5301518682335332
-0.676249755626978
1.533551040240817
0.711039912882061
-0.8539769716096492
-0.006250548843647508
-1.2938074483599076
-0.7542654931084514
0.6442409004933219
0.15192286484471418
0.06278415194828918
-1.0297525231341913
-0.9401950204570435
0.8314405246451906
1.5017315326342322
0.4341319708248119
-0.3887272719685011
1.3973720844756767
-1.062710327089251
1.0444110462596188
1.0618327794097697
4.18842034822456
4.174030571416711
4.19519195800081
5.371478076678067
-0.6669945799628401
0.3490965074919391
1.0624053457772749
1.4608353941780243
-1.0763509776922044
-1.561293846271463
-2.575555287659201
-1.5111375349155218
-0.9292843066377482
0.39298977930093587
-2.864956697337065
0.04339298514805523
-1.0143326964476052
-0.9922652808764306
0.22081004282327538
1.21397629261576
-0.7005070602310107
-0.2899743809697969
-0.45192396533513207
-0.6278237770139488
-1.7094781946977726
0.10735254853259238
-0.8078384367153437
-0.1280204206799273
1.503073050225355
-0.2340341531744199
-0.9869288015744154
-0.21396651861673513
-0.08817920388832715
-0.036292678355119845
-0.6645531210727046
-1.8401312384218766
0.49701500567213797
-1.096354989964524
1.466793122727009
-0.4779757634533019
-0.29424337977595894
-0.9325518813470093
0.38381421385232584
-1.0009498253626308
-0.35511438746617807
0.6464533961355227
-0.7777765993957833
0.5330029322422442
0.7999504433415335
0.47786636578771774
0.21533136498989336
-2.004139020704816
-1.1732549267666015
-1.3231083799853662
-0.4029061386575178
0.27863642865764143
-1.0915613047205954
-0.3567044217950518
0.7978774046880628
-0.8083194006902067
-1.2973866464494712
0.964361537023277
-1.0211152053114643
0.1794938662890348
1.3668806737382548
-1.358768575005222
-1.3055747428131745
-0.18373440129052546
0.021401355001160784
-0.4171003225459917
2.045469288741259
1.219174113588811
-1.0224532169343608
-1.6718034523773961
0.21214761918572833
1.0521780019422957
1.7957970665480627
0.012177336791769078
-0.2174320962673168
-1.1470941791574094
-0.018627307928445858
1.06526644859089
-0.7093011387868617
4.452979572346773
3.5113997086111213
3.0161864481006355
6.4232886571083965
1.6478715185426691
0.19213908010821365
0.7084512083993055
0.6679148879668325
-0.3240733171774787
-1.1513003968955562
0.41424600914227083
-1.1060320921933418
-0.22586126135950801
-1.260246490094782
-2.0835739735898344
0.3315833656737971
-2.8836291588583496
0.9807285302460427
0.6415048137466256
0.25728500425638445
-0.3877658204918605
-0.13330264217731946
0.2390748752713544
0.12960381600692716
-0.9075091012205128
0.14907945942123668
0.5387460054386458
-0.5721455842879588
2.0913295757111636
-0.1485569965195132
-1.5759061852644543
-0.8528481373039496
0.7251952188935122
-0.5185659084331421
-1.1285654705142072
1.7720325900117644
0.002648050521208589
-0.9439983550735773
-2.6477214378990226
0.33368116262790515
-0.08629657347231016
1.2721081842813458
-1.0116273671427178
-0.17065682620615263
0.028681745634785705
1.030841384010037
0.941174759132624
-0.7496706952632209
0.9690957144205354
-0.5139950278519847
0.07454253921854312
0.7516695311680894
1.8017122272177897
0.6956626374706163
2.4223877225750523
-0.20314334870176026
0.3232674971542625
-0.7638546803905572
0.5611568022907032
0.7904931202019863
1.049969603549088
0.5101996682913996
-0.6444310508925719
0.323552413707952
-0.8844041789292888
0.35967137282853967
-0.9225531995621483
-1.2348178361838367
-0.8523438351810334
-0.9688694628503294
-0.5092825766857854
-0.9099609505892845
-0.04065259981851281
-0.5958277093391778
0.7043651638162574
0.5924093238425476
-0.5363910187266565
1.0554562080042507
-1.1916023521193004
0.9555346748575377
0.15181495975605883
-0.38110290987182244
2.459789695846166
4.546368166378062
2.9139619491453046
4.645806284356973
4.2994243497225995
1.6809741092213144
1.106368897710423
1.2813047138050522
0.4104525385873367
0.20524398041625477
-1.0152701866355458
-2.108168294936475
1.1283974564672579
-1.6003841310724563
-0.1155342473747307
-0.4820256598920548
-0.3193792558997909
0.6423576112129104
-0.9112339769128408
-0.010292823637510329
0.7873809478421734
-0.964174804074531
0.7839240781345316
1.3663304964900516
2.0804702462951186
0.025687476373795426
0.064564575740999
0.3282717667946119
0.5403311446611334
2.0700406720207987
0.5722706615878353
0.7719133425069211
-1.3252175982244874
1.9364203072166664
-0.4256108413744297
-2.398604797354008
-2.0772426286052577
0.6251622208625311
-1.0048468960028791
0.2095307826110541
-1.4640728451664196
0.0820519048779978
0.1353548981544358
0.20070408391440736
-0.5358041962434305
0.33371094463670326
-0.6341883774286878
-0.3916614843398907
-0.547218547357156
-0.24727231901698524
2.0875367775837868
-0.2681320275531882
-1.200781408590316
-1.2366667853782216
-0.10902847605937432
-0.8909676606768856
0.7072302941444502
-1.5513931300626516
-0.3421351813734715
1.0290678927375627
-0.5052807961248715
0.6453034540837205
-0.14410050135317548
0.24603526295423267
0.5070202181211072
-1.6058373660607153
1.1719095447494967
-1.9431795383228272
1.2516023514667913
0.4956029582264242
0.3623241160210099
1.8456174879382747
0.9921134825563505
0.9298630246225619
-0.18763356888084914
-0.14779510213251293
1.0583164972166155
0.41645875351327716
0.30773113038927546
-0.06378811102871729
-0.058692005865291
-1.2598035871066409
0.8523127321006018
1.3207238397689045
3.4639582113102243
1.9363253073943902
4.231179248246494
2.426281737179337
0.824084262232804
1.3312560589757647
0.7532027098111649
0.5841856072080186
-0.07103805544964807
-1.4928700223783367
0.9335614185010904
0.12618320476003567
-1.2233214372629615
-0.43658871539199284
-0.7863999420891011
-0.5655238474470137
-0.5749268495595001
-2.4891579861049404
-0.9088120605490371
-0.05348681407428008
2.2491746739511913
2.3655798650375868
0.7867391085416902
-0.6109625517309003
0.6331189639501179
-1.6493718044243935
-0.48018630396604617
-1.5164131001960177
0.3535354985870652
-0.9931764247404848
-0.08852548412597305
0.1602176216297939
-0.37396477764756436
-0.2439965538642919
0.26295538664289586
-1.1480857837524958
1.3429348990334398
-1.170701052481749
0.20777421464072018
0.7301620697754089
0.4667244954945162
0.9113978351991538
-1.7559954377477556
-0.9706076033672294
-0.098167507920215
0.5498363653471056
1.4745985904442707
-0.3370246053617306
-1.086533209556485
-0.556065786320074
1.944918220577025
1.7732965284246964
-0.16567405150601144
1.4148018739799584
-0.5326550185687347
0.8292950427034896
-1.4896914555110696
0.4476391362807909
1.3468528879780408
-0.39521053984701937
0.8482454916925882
-0.3770202713779701
0.23967098253098662
-0.26150877988430116
1.0229902743509556
-1.693433301427211
-0.8748950531794976
1.5618133762259498
-2.6929592782088596
-0.9037431108234864
-0.10048834449018357
0.668734537072964
-0.6953986939696895
-1.441335723429317
1.1355909092626038
0.9346960807774388
-0.7135175934022946
-1.9075058424315556
0.3759294872155269
0.5530024527119495
-0.5547379873669598
-1.7938308230008018
0.9280232582528964
4.268579289514475
4.394035753600528
3.5419229795415736
3.0167953181317415
2.2133088071947062
0.1576435668409846
-0.17111095347037164
1.4446259249534565
2.979746001053381
0.959742060917961
-2.073504485792112
-0.9418454340091262
1.4346447755218517
-1.2576577736188885
1.0494963981159855
0.048019280973181644
0.30691161287234137
-1.4506764989581526
-1.062021921091479
-1.4269336305872025
0.8434737968444206
-1.7892723150972112
-0.36026180124218543
1.258848800120902
0.4172936342697283
1.2886003662663255
-1.787885168597914
-0.9101214103083636
0.9659802053041904
0.33096768100448404
-0.9186324415446223
0.5808365378139759
-0.487209752023021
2.6010789664708356
0.398827207237214
-1.085298791651011
1.0646030727136844
1.9241026657543945
0.023414727734960394
-0.629408996727477
0.2852238762229157
-0.6777367106155684
-0.27362052028520845
-1.2459748012535445
1.3119096000029034
-0.999444174687611
0.6688821041436794
-0.42150407084536984
0.21130469805686725
-0.33720039674651026
0.3123581269204953
0.31273790425491105
-0.08886421511879145
-1.4673175619992356
0.3148246016320111
0.4468744998377404
-1.5608938202909415
-1.1428158886762196
-0.278376383237275
-2.450963243913907
0.8376022756783995
-0.5682172240300458
0.4986033353867743
-1.079393507864184
1.6328085530564813
-1.4950195840481062
-0.47709909574201964
0.8523340938596893
-1.477599885218324
0.053501239559402586
0.8277608516485588
-1.3801920948898572
-0.6715439933192531
0.019634442114752043
0.2730563043654773
-0.6924745345634649
1.880204618902966
0.6518248830922965
1.0174523136632123
0.6271822269123203
-1.475283598586271
-0.00034092508828874324
1.150243154708502
4.168539533809862
4.903908518797623
2.4449482663510564
4.505409214192513
0.6853781430033202
-1.2202877477693495
1.5032915215671452
-0.23445809387906522
0.7924432312086664
-0.5919941703653304
-2.547955695949575
-2.314764196155725
-0.16833351283433806
-1.7275165339269274
-1.1614328935822735
-0.8575270363672651
-2.716945854159658
-1.246844929638791
-0.7782482583344562
1.703494467716425
-0.7485405427855536
0.8255232728059058
0.061671734368683964
-1.1474105894965998
-0.37575889319196737
0.7260775419515444
0.6481347975473261
-0.5839225313890261
0.4441976677011658
-0.9095754954810548
-0.28861614861362184
-0.2502216919106432
0.7357088847430855
0.6054161693752473
-0.6045326967924303
-0.5730138099948725
0.0655748227650643
-0.1850975455536484
-0.22847708891510843
0.12925997138611323
1.5580516347286222
-0.5603523695710793
0.23893022556280236
2.664309991769229
-0.9254498229796646
0.532872144389368
0.3975390757672966
-0.2823022129945537
0.2147731732287262
-1.3102543620134215
0.2891649914251167
-1.6661969769234026
1.4245879666242698
2.1189359865402713
-0.13554628804573385
0.8559778804252655
0.01063335285968714
-0.3721175938363991
-0.8824513720017747
0.5367491528473722
-0.9762793306614741
0.718521700889897
-0.0038136180480400766
0.015012303611709736
-1.4652466143213827
0.07036810127480894
-1.3821317637893349
-0.03890257660329853
1.3895864482579103
-1.1736420908290972
-0.12798344403816297
-0.6218332040834341
-0.8844366240187259
-0.6210472138110276
1.3985870678903831
1.7131102090259165
-0.7331178827528655
0.28385134082512503
-0.6075484968370718
-0.7483895124089932
-2.4308761437029527
2.1497324626904533
2.230700280317743
4.000019947866061
5.189995017109541
4.424275652259364
6.242082439802941
0.6677138365464
0.4282388661204537
0.005166962395096064
1.6192812426845276
3.2671037527893123
-0.7980543137295084
-0.8390851311078967
-0.4977447217946863
-0.12896663319539442
-0.6010211590901584
-0.6839555393974527
-0.5757744672964091
-2.270182904000599
-1.4121435622278418
-2.452872176220881
-0.7702420090047202
-1.0946220144357819
0.847790403833512
-0.6572064545345965
-0.2956972979165276
-2.1473892217010544
1.3031519428541185
-1.2119668615039485
-0.449948931695845
0.8001350001866089
0.7121354332408046
-0.6831479025129846
0.28276092081466286
-1.518379177051243
0.2539085542945768
-0.9048645052528378
-1.4793914322994701
0.11042078237987135
-0.6751580071029777
2.2430376273065518
-0.728981227745205
-1.563760729763938
-1.0865232509587956
-0.4017504001232392
0.4113355156712605
0.5106820652095903
1.1681758667661355
-1.5376120926673018
0.6770778873887147
-0.9947094595496688
0.5601523420155202
1.3812270815991643
-0.7101095570502512
-0.6840156003996783
-0.5716371103704315
-0.1468807201336016
1.3603934527886328
-1.1086100365682774
-0.3851042097467239
1.0978358508902144
0.20963898235713174
-0.4570282950989324
-0.7398585891393606
0.4650886167824038
1.59017651753541
1.796726943545687
1.1146125843819925
-0.4512946408777807
2.12252875543304
-0.5776876513889585
-1.6564743961517496
0.17361314106710057
1.4987919778825007
0.7064210777827167
-0.27853989978519034
0.216841484559244
0.5440478325020277
0.21499717145644764
-0.1774477800917631
-0.940433602752043
0.07776704473208675
-0.17623666635611113
0.3955054650596524
2.454772512760834
3.4240155590958223
3.5280649536599755
3.8975759937428482
5.75584959094581
0.06568045045119741
2.4206967670837223
0.9202590549485304
0.7986378573115731
-0.32762731297098324
1.1494093935798977
-0.26530507595809394
0.1521689139699951
-1.7475446185927228
-1.193232121274214
-0.10029808335373668
-0.9818589071360475
-0.13797411326444303
2.0040398082356656
0.019548217474156568
-0.5607223519335579
-0.5682542121998395
-0.5569571380663639
-0.32808128337971443
-0.21916447518156748
0.310778735569928
0.559685162940484
0.501265247186993
0.0124610782218397
0.07927086318158795
2.5195743354775737
-0.9873094328872956
0.03691989678409627
-1.9445339529187626
-0.3471291085471184
-0.7953529933871256
-0.9932017297488663
-1.103751554990228
-1.7651756813596955
0.24004601829335528
0.8308505724479129
-0.6374650995250495
-1.9590127776602095
0.007451261556472827
0.37292597050473253
0.550505955322518
-0.8153216118416734
-0.26777587079858867
-1.0929871340519492
-0.9369028128859925
-0.8453805766084593
-0.31398243046307606
-0.14064729929978814
0.12146815257028726
-0.8983855772281044
-0.47742568005643793
-0.9498011451886658
-1.8327453689131121
0.45637390567753694
-0.6064791471852774
-1.3830010461297597
0.5644633028780045
-0.1311582182683929
0.4406738348889562
0.40615266943606154
-0.8661989011215303
1.0052210431817932
-1.6769161446167675
-0.14919563863889695
-0.3908039119537276
-0.7276996323969012
1.373448252047647
0.1714767455017798
-1.5344717081416084
-1.4152003031390363
2.056108203691641
-0.7142482586866542
-1.1273283753134566
0.9920972876359201
-2.2475445986165177
1.4437908263025752
-0.778109978454135
0.6631182013886462
0.6402941000946132
1.7898463487922576
3.281180602546035
4.36704689939575
0.5516373063192779
-0.3858247674225542
1.9754488932663843
1.3743897675523955
1.4377753610119934
1.9920247010597656
-0.3637374207753214
0.017972519789059505
0.5022785133083367
-0.47722599876435323
-0.0005742615537547291
0.6353324796296879
-1.3650668567314197
0.7472592839054396
-0.2784445879252202
-1.4635403415095132
-0.40624962115090546
-1.7574731048557828
0.3021162599752869
-0.49887674567479456
-0.6818001341835634
-1.6258070433099392
-0.7522528514361945
-0.012727922230741845
-0.07584689968706754
-1.2673165348491238
0.17961483949792115
-0.9080051027417126
0.8352785193122108
1.1307888031803346
-0.2152622476853835
1.6739544992452613
-0.07424510426130519
-1.391955996246585
1.4131159336745378
1.5086620697696866
1.0734643756057556
-0.6608407487410917
-1.445351527852664
-0.03793090396410037
2.4682035151817585
-1.3756117628180835
0.820827877832106
-0.28743418663586545
0.828160738560243
-1.3798902954965533
-0.2766677668647761
-0.6250956555667706
-0.8198779056880333
0.7695260282242261
-1.2144468759329614
0.3465343772577524
0.04915839483426509
-0.9705658581468134
-0.5963075422830951
0.14563216022502518
0.22815979895365526
-0.5008380083007541
-0.2512199995578774
-0.02557897551790611
0.21978482102076036
1.4708767839633334
0.3670991276496552
-0.15757025188408796
-0.5635461470287516
-0.277277798298167
-1.2603543920504732
-0.7800034920933757
-1.9901685866526277
-0.2652785836217442
2.1642567927304843
0.0021073782329814605
1.0370701169377736
1.2280140801078954
-0.43262121029017314
-0.3781852449086548
-1.2620144633762842
0.40046743310171434
0.005558577812453121
0.7201600149853892
5.195951944423341
3.0038655930528253
6.356088750695225
4.275068886606347
0.5554857367963327
2.4233536532170237
-1.5839711352858015
0.5039134203673531
0.15237762316888648
-1.1153850639802338
-0.22833386066969474
-0.6436052425846589
1.439764631479325
-0.01712210325448522
-0.028694136013000728
0.12188853677022737
-1.8268493149761447
-0.41367904199943323
-0.5608357040981238
-1.2434125408397252
0.5044408475339588
-1.9807642463147954
2.562875175529269
0.10175493527763757
-1.0616720835127866
0.3299860898468009
1.0376465120012763
2.030387421349296
1.9221382125701951
-1.3032506457073187
-0.12105719791968308
-0.8640469335817922
0.5817524836868896
1.5233701336147991
-1.2557989135612255
-0.39966992035608745
-0.5729571581454499
0.7670174104209986
0.276133592526424
1.3708827033076465
-0.4354339912200388
-0.1249332269499929
0.411964900903962
-0.2775215807613491
0.27944948992622265
1.5613650531874852
1.9967483335232035
-0.8356899057411004
2.156467306711152
-0.6901762298341928
0.6495762614383688
-0.49754293239129443
-0.974657232633521
1.1879907897551372
-0.14049595014363353
1.2438978923754906
0.7418268641435127
0.4105778285949301
0.19271236503060651
1.2634218943742916
0.6349267434553265
-0.5387463046406634
0.11209363565941666
1.5340692277292975
-0.0968275521725499
-0.5308575509031846
-0.7699613759598988
0.6383329412164319
-0.7424238303583348
0.24394858739382638
-0.5300815052442535
1.2778632177050369
0.5663971606689924
1.7941544387013497
1.375318486170438
-0.24636438322802046
0.9433740815026965
-0.42152267056960613
0.08371496290112096
-0.9271616138676593
0.2671199464962453
0.4418461485604197
2.452252299199812
1.8175105703678893
1.542547488259916
2.2400248409189047
3.965896023264433
1.4739322542560895
1.8479921632389036
0.07702438925697563
1.0641603838809444
0.0991794002612642
1.0417576424360773
-1.4583223160241348
0.40202835745221444
-0.43185345838176264
0.9645162976015155
-0.24966586532995735
-0.08074928922093078
-0.9105970009746439
1.7987340611806157
0.4032837459620223
0.45462760028536275
0.31369432356856936
-0.6257556050393007
0.5300726391960849
-0.5973445519846667
-0.0896584836624621
0.8483718354223717
0.28252594696936834
0.3594905922749681
1.649070951814052
-0.9111969897240385
-1.5541264851531438
-1.3289055726326264
0.39726131039038437
0.5952779979209433
-0.7066776820293114
3.693430182979933
0.38740722469697414
0.08204631461996313
-1.1250570931910397
-1.369865021666855
-1.758579757516084
1.349801572801347
1.1105752356642666
-0.03461654456412185
-1.2913655510378268
-0.19376226027575408
1.1945460623580146
-0.4897383637940769
-0.5987991332299761
-0.46898214313944764
-0.20519727595099407
0.27343009716680644
-2.523378375923405
0.14272816820615897
-0.7118725192836266
-0.5272732248284008
1.192618585218723
-1.4183912058326966
0.1968129008077237
0.33799824403301076
0.7269858343425663
0.47679473513268283
0.43210397375675
0.5389721239466181
-0.7160620593587949
1.3908711011184838
-1.1278646079781622
0.33156068013420303
-0.43903853531831544
-1.7487994134232971
-0.17704637612106494
0.1354389636398735
1.0917410548770854
1.947379586208295
0.12392291045717618
-1.4705759162877983
-1.2238294794370848
0.4762884362252358
0.5089542195239074
-0.6576945722917894
-1.4451204461768166
1.0033135273854024
0.2726901339801232
3.495066409073427
4.3279497479981
1.8058823552198968
5.318391850317058
3.478943114329916
1.620122154776352
1.6735985263966284
1.295805515571485
1.5031312908549874
-1.3513699085403954
-1.7327302527121038
-1.1093243307272598
-0.5623393556532442
-1.6367715991726801
-2.083953697602052
-1.1710349987906954
-1.6014636837699394
0.21795117102717101
-3.8797162074904357
-1.2363442404150211
1.0697772809657586
0.27349918724932487
0.06057270142740814
-0.0670647793895331
-0.4705755713145068
0.9790999933892444
-0.3915666533605691
-0.8266793153731911
0.6040567272206522
-2.0468310201987525
-0.484742064606244
-0.8915205561345948
0.2585999944009233
-0.19691575478887902
0.39567557408839577
1.4116897145222556
0.7451779619032244
-0.21760551848942528
0.5624339092803812
0.9634198696236995
0.5426511660235451
1.206883329324679
-2.414839394895169
0.10255268324819822
0.3625349744751166
-1.557379274606184
0.2947658627179319
1.1655070722003127
0.08123747256703565
0.7564281503392665
0.9895465252106205
1.5134063858884343
0.9877374062062435
1.2901867858692555
-0.24451434236487096
-0.015778905605588534
-2.245464186289109
-1.0814866838060466
0.7805151001036799
-0.4480614031088074
0.5023238535480996
0.3512190903526072
0.9538756705087743
-2.086503583657064
0.7256902189810939
0.13159249778288193
-0.7421223150878955
0.8290037278130192
-1.2975392523531832
1.024743196118735
-1.9143863385256414
-0.8966686488263931
0.05905243368754079
0.6399113513095748
-1.6708657455798461
1.1582235680919069
0.9850218102904198
2.015841299770236
0.5805130251808344
-0.9055866079628512
-0.9332701569600794
-0.5456522535218823
3.723406465163125
3.8413598404017413
3.5769055580854263
5.080557688011539
2.5202285598042793
1.8187127539539447
1.4539251734240406
1.6604461210688881
1.4862787281017267
0.2410801868259137
-2.200203265499367
-1.4210615352528901
0.12259969951247077
1.3281469694506514
-1.784659715509103
-1.9915227303748309
-2.1082425193495378
-1.5778378044128165
0.5122383885378652
0.9448265695812595
-1.980079933882438
-0.98639156684996
-1.6956988673233966
-0.8597195189970258
-0.4129042013549474
-0.6277816254997056
0.2308974741233097
-1.4309570339363225
-0.33825799160482684
1.690904567896789
1.4750641026364635
1.4991700908586785
0.5276269530739117
-0.18654422702426043
0.27979626444031624
2.5052071125922883
-0.4762460425872034
2.055920060217767
-2.4400009724094947
0.5486362328161312
0.5117418826323976
0.4445300961019263
0.1852429705821093
0.44627211279405554
0.5442930365693219
-0.5427371081782856
-0.27554137066675094
-1.1701235236505696
1.0225928845435208
1.2549397816870216
1.653380860183975
-0.8732575965295746
-1.598935520884559
0.25154189325552534
-1.280686018531298
0.6259748573392205
-2.1015847338875946
1.1273845140984078
0.1780681890500927
-2.0182270666182536
0.3081514592889399
-0.38170001057963626
0.8328491031553263
0.8342376051134557
-1.9955175483675074
-0.21348186275819314
-0.25204975984441585
-0.36819248490303136
-0.5714722467089085
0.920534928009961
-2.0440331799311693
-0.47620697262826084
-0.4192767601177016
0.06688183995789043
-1.301425558793061
2.586921186878761
0.9142366998512511
2.480959646412115
0.4474359796687623
0.9179111239772706
-0.298070907715716
1.2682734136131038
0.7844266623196299
1.6704096123372818
6.560412335337476
3.2500111669894527
3.8471213130125013
7.244900639074485
1.511557123239713
-1.6363830994837485
1.9802931856194042
-0.059636212642166564
-0.03940502560460196
2.2425526702497027
1.2440171686642947
1.4931811614062156
-1.202055880940692
-0.5060494430874182
-0.5542857445298747
0.2739878992744766
-0.660289822407742
1.427821406099574
0.21909275921979088
1.5102047230192954
-0.9158342793574379
-0.75743814439766
0.39630390971055063
-0.49369675387263356
0.7846566527873531
0.6477812069884296
-0.1725561993026019
0.530903554187547
1.8127289831085605
1.2802116736552551
0.2770085267937034
1.2453592378621001
1.8257628573238203
1.6156360556777996
-0.3326709151632733
1.1657514494502954
-0.014085233754506876
0.15043946738734085
0.30590775633197365
-1.4935087618255116
0.6202566111708026
-0.6026183517961183
-1.3137507948734715
0.7523654259530668
-0.5657391624177166
0.44982804491625683
-0.25675993159073224
-0.2680454859608211
-0.24762425198566856
-1.5565493763671918
-0.10680048354425181
2.4330034281133206
-1.1839410135719577
1.2741984903398809
2.090352907880037
-0.9206728541072449
0.5168724158499416
-1.127460482912007
-1.1273203531291782
-0.16126056342150033
0.04816696988961561
-0.6134986678825993
-0.9678301693119064
-0.5790003643581639
0.9391072113066807
1.0607325478835057
0.9455062637805774
-0.5431569767191944
-0.7821411663366046
1.6122754336447676
1.5307755197025623
-0.7147379172317869
-0.0073320668810140655
-1.0689186607970629
0.3650450487487148
2.4598508736857587
0.7515357375731619
2.1680065518677405
-0.6162755272061899
-1.2214648048097803
1.5314390608892878
0.1817387073810424
-1.0185939607800805
1.7868679523431004
-0.6193646903999724
-1.1719990567027987
0.5930729863839269
-1.6010520956528904
0.5921770476619124
-1.0829179000256335
0.32740898020028264
0.36354800028752504
