0.9813011912937568
4.04658708641445
3.548524385268846
5.76988247465844
4.370308757061645
1.1141234347987896
-0.3173427074666765
1.6305631921775185
0.3676659495265348
-0.2135190435971257
0.8720432946248964
-0.11555750370319084
-1.1737550275727753
-0.6037442434549679
-1.4343715265404373
-0.49667761483779804
1.2490543431457366
-2.331008678117331
-1.1491682859676615
-0.6854345627378071
-0.4581924311807661
-0.37492081867351545
1.860935352078669
-0.41198735275652365
0.0723706797501833
-0.8993306738968776
0.2613395450792847
0.9891751116594253
0.03746557420386962
-0.7826322278614979
-0.058671574947774946
0.7242237138158718
1.000063195005598
0.1650605394256701
-0.15317658094198391
1.0193014183714482
-0.2785369176504777
-0.31744696965132846
1.471247882458665
0.1485810527687475
0.7907550258816178
-0.6480292202338251
0.889267690322484
-1.234425364361867
-1.3874600488301179
1.315912146223233
-0.46161742062406264
-0.4334211353262234
0.3012076361932957
-0.3551065015266732
-0.7365266342088763
-0.512545980861779
-0.7280899120767963
1.218411730902539
1.1696592587243446
-1.0492162605477167
0.754259037321459
-0.07437446498118222
1.6758059194151553
2.5544682945008983
0.5897485751159468
-0.46072731912180587
-0.9415416411089694
0.43361205301286243
-0.12458478195318566
-1.0474446332786573
0.18596491772874557
2.3767650486827208
0.845741359449623
-1.2361341066230553
0.1754226836237305
0.5201623060420246
2.4430752081898146
1.537542914923141
3.4278856684200893
3.4453475744656203
3.3119399608716282
-1.3015964262731756
0.5257415052745829
1.6893644766330624
0.3906148636384632
0.42020233046917904
0.5103213732473061
-0.7592495497321804
-0.6423959610613036
-2.6078249711409267
-1.8664296034921493
1.2630750094436731
1.0987877373395945
-0.43772838944469517
-2.729426823834862
-2.2787281697241784
-1.2938929580507195
-1.3591842786520287
-0.4085466524350258
0.9171221050202117
-0.47395314225362795
-0.20324424814104664
-0.5199794999362239
0.6689697020183982
0.6469172589255836
0.11318204103727335
1.7015056662521462
-0.39269486837458395
2.1671078650326203
-0.6127582123058724
-1.9361145177737065
-1.1437672109207893
-1.4100011413413984
-0.6947348596938069
0.7880435622117776
-0.6269521187209973
-1.691359376122284
-1.3111498779545534
-0.33019636517724316
1.8070759014104552
0.2922453547479796
1.1357634501541463
0.2724976804940228
-1.7511855501509048
0.5318115980947886
-0.9261939216108879
0.00622854801061945
-0.6210075290877477
-0.3667416927897866
-0.4430045366535431
-0.6783163951597654
-0.30170771795419554
0.21227275856916428
-0.3032615531898642
-0.38728256600805766
1.7574544086380095
1.058382434504496
-0.40159479941547094
-0.13027756998212559
0.12315813215235372
0.2693108959671478
-0.4870824927198239
0.4023334277217219
-0.11133444137837917
-0.4233192042959616
-0.59202623940633
-1.5785781881719623
0.8754912315907316
2.1325746835449366
5.732755871286935
2.3420301468396083
3.0380961345915374
4.692878864890983
1.4564865269199547
2.6349585759223926
2.3818536215932693
-1.2873788727967588
1.433268414713665
-0.15074084566805795
-0.7889313357509908
-0.9939786526323414
0.950673166166715
-0.12340817769641932
-3.555961269789028
-0.9412035724370149
1.5168355589954519
-1.5846095158927374
0.9252471463099148
0.676490286724402
-0.2098515609853475
0.08818043466123375
0.016471439542983912
-0.36750558522301346
-0.807641089402068
1.1468266341367341
-0.2343753690801545
-0.5145884047062635
0.7163114157856597
0.35093505381000895
-1.618978767947986
-0.7560637526584641
-1.9583234845084234
2.7070837878587706
-0.1692544552245729
-0.7542186881575935
-0.60030352424155
-0.8938443183349802
-0.27310474272401253
1.0880516098961552
0.06629960177797062
-1.2303230466179669
-1.0113211303046363
0.006866515274689233
-0.8022161886244233
-0.061588487461087665
2.4577439259163256
-0.9774213421092266
-1.2034679093722178
-0.7892444371492168
-2.202752409108249
0.782657952476031
-1.0971358909328173
-0.952661591244847
-1.2958832540923058
-1.593797404796614
-0.35074176546346836
-0.9125303218261009
-1.7200795679415235
-0.22504283685720847
0.31428379575393617
-0.7284414826927397
0.6672742056247292
1.7087629410523575
0.6028450679450756
-0.1808751229351204
0.926444465183116
2.1036224073004135
-1.4039083895220081
0.662630825846383
-1.226337822890046
1.8152547756345363
2.216290182272207
4.167153682347395
3.6655613784350076
5.209187377798887
0.8268784695351786
0.4844390397808689
0.8428584135212527
3.530242385864198
1.516084902098216
1.0547152744564277
0.4117733919745374
0.5128344136295206
-2.456841344524902
-1.2120475639644686
-1.3649177147877727
-0.3115486228688519
-0.7698086392869653
-1.8620712949017273
-0.5416048958248427
-2.0180872777550682
0.7007413787513168
0.06703064983085283
1.2991069089034832
0.19963248198571748
-0.5553674106789313
-1.6573597914301061
-0.03031755375908224
-0.388208842180675
0.27739126753449084
-0.25130827982752685
0.43935311238389685
1.2884701760734785
-1.6315851999898874
0.20135923594274283
0.04916100292346167
0.44931448996290424
0.8643041368514794
1.4138333114804098
-1.174357995221191
-1.4830427965515178
0.11939812479119906
0.4633957599811583
0.5603794395465506
-0.49515266002635083
-1.3901427584989217
1.4663840210312018
0.6442981126556542
-0.5974729347103089
-2.242044696352357
-0.8094366822123701
0.6439338894905778
0.6463501011217141
-1.672857340004211
0.5023906270044036
-0.16708762718383732
1.0042693884566414
-0.6569824197992571
-0.6853750068004238
0.3374593191472675
-0.47268153587291517
-0.7816866589479824
1.8644358548589213
0.9246591931408091
-1.246941370043681
0.2970304647772114
-1.464368950316848
1.6874976734784988
1.0261683437539204
1.10565288251374
0.0625161554887817
0.682763702865995
3.30272252165217
4.461834955862412
3.603883036379815
5.420476989278772
4.198435824906516
2.457213535120517
0.907725113276739
0.6383744200138081
1.6450579815958888
0.7938819992930689
0.03447612594255482
-1.1129641369624848
-1.5533469012205074
-1.4857817578837147
-0.8450124713534287
-0.7513513124611105
-0.07827725803455049
-0.14019258719887367
-0.45886059004987634
-1.9954059570693579
0.9135481306606699
-1.6771768435205217
-0.6994577820229286
-0.13249871422995715
0.5630976285204028
0.5692108689051005
0.10933858499179344
0.515760065072484
-0.7295536041295057
-0.6218964462768589
-0.6446306933117929
-1.121768261039458
-0.46455306796232054
-0.4882669941784463
-0.5920585145991288
-0.49884154124102653
-2.7176983648486783
0.6817313510230227
-0.3612870407316339
-0.5413397968630395
-1.2394309287250844
1.543154000150381
1.8013082625915673
-1.857643527189418
-0.41073079872983276
1.0730244581904653
-0.36258833160772114
-0.4207605890302859
-0.8427903474897602
0.39943538971457154
2.724691020902675
0.5204767767593562
-1.109241736169694
-1.0321214069476836
0.02621650766795325
-1.1226872620143284
-1.0834627418525737
0.7489495410887356
-0.6953619768994407
0.7416557558409604
1.6440897534677588
-0.5782938062936647
0.1367263133357761
-1.1632210632396756
0.39371391880219303
1.4406554427992724
1.2804733653108658
-0.10939973211068574
-0.5202227666303716
-0.03659712203241233
0.2877637672823721
0.35994556670821803
0.5298286511139694
3.065275369805669
3.5350292795961087
4.8576014636759615
4.776156465732719
1.1916806688059953
0.27378166405187593
1.2400528737811682
2.147278982596299
1.307535317278051
-1.0071834333945264
-0.9580200120920086
1.012279039717986
-0.27081196219799186
0.47223713184766025
-1.1710658456111387
0.7181492502944918
0.22395627959164993
-0.4617371179791443
-0.01153377973315678
1.2307349781108328
-1.200804970248173
-0.47828905162969904
0.24977735342621743
0.026669915530575485
0.6273768174930618
0.7073091411095865
0.36513638000831605
-0.3259659765020955
-0.12480374114243295
1.667397534510841
0.38698970494480284
1.0301692694329838
1.4775122226548936
-0.7438703136292476
0.7221580770803441
-1.0091238882512068
1.5712595257999507
-0.011203938775387917
0.18272209606100898
-0.7352734603701396
-0.6162536017791527
0.4380584072282774
0.04351266988057774
-0.2930035904411818
0.5619904030236713
0.4460250349262188
-1.056179522750892
0.6227440401566793
-1.2124264296460723
-2.1131940579073114
-0.13754652057076214
-1.0224778032106376
0.20093520287354713
0.8611332374680575
0.9777153569952485
0.48103059468632714
-1.566678448384812
-0.8176258385234902
0.03767036864595158
-0.09266855884154038
-0.8834757974958461
-0.48947466870720313
0.7817740786395371
0.5451975082027108
-0.21142499545622234
1.171256650013067
-0.9299009820643696
0.9949587634187036
0.3885049685173368
0.5299199160357237
0.24153228299305868
0.39123160845074184
3.9898285034890564
3.0034346007443737
3.4282729465565143
2.829772911457123
0.918932377051545
0.46736916185689414
1.0869320801453064
1.7596257697672637
2.842648974928141
-0.4089466239182486
-1.6031450838395713
0.12173881358908882
-0.2126492982857339
-0.812679591976963
-0.7965336523120543
-1.4120886685915788
-1.3054610482934117
-1.700002140775669
0.34079010313277247
0.5694314280826868
0.2247818341446573
-0.7057175802714044
0.8852348301305721
-1.5701925059925925
-0.3477461921936471
0.6109494178928121
-1.7742761479519245
-0.20115469585029128
-0.2878650074682284
0.015603624859760717
-0.43012169620910357
0.290712589790963
1.3094571569963764
2.4611479202932576
-0.10118032206435354
0.5805480420161897
0.43831721858643063
0.2512980378914816
1.4915531935098432
-0.5917970506683026
-0.06802318925469908
-0.01429347002782455
-0.9668728199174134
-0.003068539812277005
0.7206523336030055
0.9817043807502913
-0.332688069122425
1.3226777959293083
-2.2611813841840753
2.4166446682741287
0.675542038740287
-0.564748591691584
0.15362553976421534
-0.20570080682405004
-2.615192117379773
0.011232844633609497
0.6618588319164768
1.586442589905261
0.46343684315091116
0.9722115369288901
0.7019219384150719
0.36358294429429594
-0.9217008993582133
-0.47229781027604245
-0.05046828325401104
0.0933709812758767
0.8822168091637185
-0.4794755367994715
-1.4438894805972797
1.4702268198792903
-0.8022620962009167
2.644118073000742
4.917636259086729
4.227891061367618
5.299746211633007
2.962880205677472
3.30285755035617
3.985378295866422
2.4609336174620786
0.6868138091573055
-0.8343898775938569
-0.36662086090791246
-1.9285638959970035
-1.0543916272836704
0.8685391544712464
1.2997865261962793
1.0789352241440762
-0.5762658372991171
0.11182677332866281
-2.8051100451338273
-2.0694454300766587
-0.38215962427759687
0.8037109239368274
-0.3867785833981723
0.8153962786298241
-1.1265626200857597
0.1282947833853291
0.6748024740364275
1.2856106953959403
-0.20569852597630314
-0.04379554197083142
-1.2976396569469741
-0.315842703729984
0.9684276862067434
-0.12151415273061483
-0.6127592384243558
0.9017346524281471
2.167149044626586
2.056581672228062
0.2876529004508589
0.7200451520247406
1.8162647085935797
0.18582989429029684
0.3999522202302115
-0.648135771023639
2.543040838714736
0.7832291373494
-0.7244710835950795
-0.48633008687136914
-1.937444391367781
-1.4253322304423743
-0.7471714919127946
0.7674524077988597
0.671922680178315
-0.9404094019634083
-0.9636535149204757
0.3561307651705976
1.5816306270925444
-1.4432577294838036
0.7224763431563397
-0.6049802391844228
-0.16171036279509432
-1.0339828033968883
0.6839276669423203
-0.49447322590120535
-0.21124115112762612
0.7982464859389712
1.3033878974726265
-0.7011770067233967
0.5959444491287367
0.8818044793514167
-0.1549510741439633
0.7231833670728736
1.6920729866587891
3.168597804362976
2.1327915486979285
4.839001119740885
2.6643803428568007
0.1656448267618605
0.27357144190512184
1.4164780117022369
0.9406016509302823
0.7690757008541784
0.45980961461154146
-0.2828603865323819
-1.7957056490657843
0.4742000380120136
0.09827378934337139
0.562457947942177
0.6170299325746016
-2.201591267247233
0.17252144077285353
1.0445727855817006
0.391150411755146
0.7567738611521341
-0.0007139095850507704
1.2626654083453834
0.7620972933759524
-2.3633741215777797
0.11432752952366942
-0.21983582809081118
0.5253816386180563
0.8858073436062377
-0.3182271383282922
-1.3292472781182925
0.33571440528361735
-0.3467396466400732
-0.7076453002192729
2.1007790305798277
-0.7437612191993813
-1.3564733939894658
0.5540368065891959
0.8373456112661839
0.9125867015238049
0.852084435757432
0.46305151861719634
-0.03751567013530416
0.7314279470393823
1.426835820367725
-1.1916620286052981
-0.5976056954401336
0.7699584192796407
0.2396769612063201
-1.829688496849794
-0.5074362743995059
0.6419758298397409
-0.21986288370988444
-0.5429732081259292
2.352287521363546
0.3816033732685987
0.016719167869094748
0.13096583356707434
0.03618632575028327
0.11736221742260519
-2.495218244543171
-1.1974391769732595
-0.05918847590867776
0.814583928722503
-0.44834065919078925
-0.8405384370700771
0.9316639303490037
1.4632548693148935
-1.947884076775849
-0.11040661026687568
-2.8611434096718686
1.7360783911913877
5.03463783140733
3.531532056694572
1.9362157683121821
1.7258321631601186
0.272697734901441
0.8023436200798779
-0.39089435048083604
1.5253684757919102
1.5621061889667869
-1.4117938501027902
0.9840868279062845
-0.9764707903095657
0.6517832238797729
-2.16419449528799
-0.08117049310074442
-0.23275114360048807
-1.4696878115331629
-0.2399586115044624
-1.1544651862677227
-0.3222344329717522
-0.17940183630231388
-1.2766800267170693
0.9579430142235522
0.565779064715676
-0.6093300333303112
0.3671317180800056
-0.9073219339563251
-1.2298571236394276
-0.4061798660617467
0.3727555489788337
-0.023153022904631768
-0.5103229254497037
0.2738414451501878
-0.9955009361937257
-1.234099991718148
-0.30063224324564713
-0.8559119490172875
-0.9585853027436393
1.0551786065849478
2.188386455638871
-1.7616875515323753
-0.29978811958054774
0.11148027436833391
-1.7547541495816588
-0.486496414403347
-0.06739254626296602
0.998638049949518
-0.8739887423209962
-0.439996002015523
1.2206426184594306
0.31482820208197876
0.24293580792275593
-1.6149762532765752
-0.6524660027876985
1.578531538690595
-0.07296123049232589
0.10623546398317937
-0.1017578092084732
2.0041712317116414
-0.6066023329903882
0.8737595430361211
0.2652519664050074
-1.3040402794980102
-0.636540570363712
-0.9491881165621965
-1.057716496310876
1.1830383285014918
-1.444928345495064
0.6124625111062298
-1.000071225256615
1.349629000941182
1.4102570048354117
5.157980438059227
4.013070797932811
2.091583765989855
3.1773976150701326
-1.0246439719575235
1.2375967862632216
0.9152596038206129
1.5607378792091853
0.1346838528667763
-2.63949385118778
0.7377229745105462
0.52803287906253
-0.1975865717299118
0.5185171363680616
-0.9283468528417509
-0.2702130645276802
-1.1930607667145912
-1.2352726026589027
-2.015157201495989
-0.8976975558599953
2.4590357646080614
-1.4667857948164968
-1.0866501121198209
-0.0006333369844625514
2.247830486534283
-1.1154056083304875
-0.4814054675390893
0.2735373838808777
0.8738701665741995
-0.735348773296128
-0.9607979558372011
0.6254525851824141
-0.34506481979144565
0.07812112423753476
-0.47370951553183516
0.490419521706112
0.6067627915981217
-2.030384806291625
-0.198752829807964
0.34086373671750725
1.0761796674751978
-0.5234538961425224
-2.060509300447984
1.146385964678145
0.7757386070330656
0.3356830603028474
-0.4058441476546946
0.4484652551924029
-0.45271967027275967
0.7903995935619218
1.6360040184680744
-0.5035781709938043
0.7422703760351381
-0.808281698414392
0.8720834752584264
-0.08360645668624797
1.532512503256019
-0.08893309471538549
-0.9544665520625848
-0.5518952098081917
-0.3378418659049699
0.4418095041696633
-0.6489518996566952
0.5344287347235223
0.04108947341213934
-0.2715026784452834
0.12431244979864756
-0.7052748722511005
1.58831866051335
0.6698831015413009
0.7272910242086177
1.297946836909466
2.572867514875905
4.041886812115852
3.877229736177066
0.5381438330899405
2.640725631328488
1.2361814276637832
0.39222942598611266
0.9707521997127182
0.8740304810461121
-0.009886395054695518
-1.0807865715841731
-0.36831425393650785
0.16558623883075138
1.1988428505317423
-0.2923289641245481
-0.19770242522078035
-1.0503440517974283
-0.5742375618772393
0.353212521561051
-1.0243945812199222
-0.19545990521029438
-0.8494995290950117
-1.0317593006999535
-0.9489984451035081
0.39752709795548735
-0.35107172213506865
-1.1239836703457515
2.464822198978726
-0.02644936478166937
0.4798121420909628
0.45151208326327485
0.21708172952620983
-1.7425291074884932
1.4820917989085254
0.09086160951438077
0.8232467181415014
1.3793095411585363
1.8154372047528877
-0.9328873530679805
-0.6168315960218345
-0.46044422819574804
-0.6347335253068819
1.4724332619657434
-1.0133438002024935
-0.3086458792177283
-1.6449827551156768
0.5828072876256085
-0.13796291019673354
0.8605487990572019
0.36138287615958165
-1.4864546705451276
0.3738179757748286
-0.981954803242488
0.31806951514132575
-0.6212612335326929
1.7307938361678108
2.853208451555994
-0.45653763490965593
-0.11972949097989254
-2.1954501169514096
-1.560138646645332
0.5722157918021029
-0.3744543076375071
0.40174057363990245
-1.0240999842175629
0.473722820598823
-2.2627498182489703
-0.5083194542780161
0.3549913971966279
1.5468505855493744
-0.19934197611601084
1.9704183176633703
4.11110705163169
5.10573462790412
4.042079975968299
6.843151603860618
1.1754232719723192
1.582761999142882
2.100242633927393
1.5371311892621609
1.2103527934913432
0.36251831739008755
-1.059236112660848
0.2877291384345223
0.6135229049263392
-0.8508867021704
-0.2931636541654872
-0.9279773181667809
-1.5090498084322417
0.23425000369493854
-0.9026055375513499
0.7885098888514033
-0.273640433908417
0.9865505927263729
-1.866229964981149
-1.3469295509760504
-0.9744775175448475
1.4960943735670986
0.08967490153169139
-0.08089808507115978
-0.11112238126727664
0.5622254921178899
-0.6677573953205074
0.7515801055861536
-0.4388335436705078
1.8226769752297591
-0.8106686519454743
-0.3720775700105872
-1.0803766100310765
1.6640289273406375
-0.2380268073643379
-1.3082116457824864
-0.8433525591490301
0.7152495871750378
-1.6354619271727722
-0.1901679029629347
-0.9073309312671075
-0.1493105225050013
0.29967150657538755
-0.3498018689269682
-0.4216349265047844
0.09002939042437522
1.701456103155844
1.2629918434013951
-0.34269745969053905
0.8598211455451403
0.3234483863319264
-0.6993577160791383
-0.16480729929618793
0.7102339628006133
-0.8607311899457498
-0.24881288663491224
-0.17205240812287553
-0.20646061063239574
0.0038809967353386488
0.5811124570702701
0.22598237975582042
0.6139773294192818
2.8148283810264525
-0.5207060837747464
-0.17337573498088024
1.0002583668663192
1.1011730018081975
1.6203089916563662
2.1836654529923
3.267244161656258
3.4780432850765277
2.72232998048866
-1.0271883223810252
0.02159034793431494
-0.10220657360066188
-0.5630299033982602
3.268297327714515
0.07732091770585381
-0.19085981657409762
0.2983947918094121
1.5995148639340835
-0.12379042918488403
0.9384616362316455
-0.8700351944852753
-0.9777178645251641
0.6550661910107827
0.6461744458998634
1.0514638751917014
-0.03746834410708247
-0.9986951633288819
-0.36941736240407297
0.8922619052793364
-0.7506185430697407
-0.12957964732272537
-0.5405306300508596
-0.39171502745249653
-1.2113986435903539
-0.3326121804997071
-0.554621949868483
-1.7351374389447591
0.8200245825266381
0.3449235279386833
-0.06405347997091758
-0.8396157268616863
-0.9021259676478416
2.195013238380375
-2.6319769910848496
-0.6970199496501694
1.9107933040360234
2.0783689373022307
1.5919182530172922
0.5151727194131333
-0.7968550206345809
-1.4872599273219973
0.44828109009923106
-0.8839366831493694
1.3438248467182161
-2.0027643360532954
0.3663721031864686
0.8342376795211003
0.7740790328467979
1.02600986914322
0.2851807603319932
-0.1442595968854596
1.2505395995928044
0.46272305095758515
0.3820822182484565
-0.007992731446520407
-0.4411719728311171
-1.410086614721973
-1.2321321761335227
-0.5011442937400845
-0.14117288592296687
-1.0895850392964928
-0.9977114121182812
-0.3693036873355102
0.7619633588457586
-2.137486338149167
-0.8297413516357718
1.0987758802351633
5.5777822967236075
6.091005759346435
3.7414917322535435
3.2527432610631717
1.0535983340152044
1.1572254940247013
0.933300002751604
1.2128495135060233
-0.6523548858898676
-2.1756378572724095
0.31890169997471973
-0.6839990407584214
0.22868235730480102
-0.2940512063310417
-1.9742015041472265
1.1788724021419514
-0.24369825692160718
-1.3554721860777437
-1.0139530597974111
-1.3448641545259847
0.4160507638514803
-0.01916021022347257
1.9852602623429434
0.6237413512976907
1.95867598247278
-0.9708715111843095
-0.5068806476505459
0.9245059650280908
0.47332636540119444
0.15830799553354635
-1.2451187992290564
-2.1245071676623493
-0.2720563300290853
-0.12396314631097968
0.116387706147977
-1.6092142159675897
-0.660528746159158
0.214422284010102
0.7135548132690533
-0.13871602159467677
-0.40433927633570094
-0.881227175926913
0.8988018006928835
0.746269395065152
-0.2536209168107109
0.8046533684469577
-0.017276889766219355
-0.561394791003257
0.6507881018750588
0.003064889625621403
-0.4021320148202406
-1.601483117872473
-0.9157535668457573
0.998290645772303
0.5744103031297325
-0.9056439064300479
-1.0439658859120189
2.0565559660139896
0.13817648779897757
1.0732999392770484
1.3618073865609177
-0.8044128903918207
1.7589378189912692
-1.3909129976137038
0.9022268645608714
0.14989258975223313
1.0185994647731196
-0.4366933840231739
0.6133366810689636
1.1606267480468273
1.5074886154443892
1.2828829670548643
3.3853028965501535
4.004515435634197
4.923888905228654
5.168035499598009
2.066892305085176
0.8747998285729193
0.4883239216406869
0.584467822590627
1.4715653221976184
-0.21342810860633193
0.1335742369366258
-1.9372983713709346
-1.4546719854579282
-0.7958437750826348
1.2020181821777762
-0.7495669524120994
-2.06605033356944
-0.1573986310958251
-0.6174093829139358
-0.8854800356145787
-0.37089419714130706
-0.17300947160520116
-0.4844955793681094
0.9369006810798535
0.48402591818951446
0.22349748441196352
1.467413880797692
-0.887918115605971
-0.6452408389981792
0.7496960691937572
0.1295826913141592
-1.4459395213497128
1.6285483485064056
-1.4499259484594533
0.5827088543168898
0.393948731285787
-2.6770456714558475
0.18574466103998694
1.4953464720318925
-0.5408018966286624
-1.8002696128577793
0.06200168981825964
0.8481360169453314
-0.2042751084482382
-0.6065231232818644
-0.6547967953941185
-1.7758657598680614
-2.0092811565013706
-0.33360902349630117
0.3840959077617474
0.5009718317481598
0.07810597582328133
0.6807598837025922
1.155128689365063
0.049334807809344905
0.773081191848501
0.7160068856884756
0.2230143776955159
0.1451878656288393
0.1946115570532207
1.5007202550221708
1.8157661549478432
-1.4432075990619133
0.26549205954868055
-0.03637324119038588
1.2297807454283598
0.031967852138477436
0.24448119451339867
-0.4220192741561594
0.9092427861353536
-1.4346659765209229
0.5508629413821962
2.7365950932776153
3.0604816314737304
2.9739827072638003
4.341643018341536
0.1707544995918095
2.19122901520422
0.3716853009230228
-0.5729570127660063
0.8117010325423741
-0.4897815335605179
1.0334618087559555
-1.2406011489785338
0.9066084671937871
-0.21875214077554606
-0.4761483614433908
0.15835399014758875
1.1966898498945198
0.19601724379957003
-1.5640990158504053
0.31159474184235075
2.2609856926894567
-1.9972215769478963
0.6233378914419497
-0.2542378544859788
-1.1243539590565996
0.8807147724421068
-2.107630410160323
-0.19275501441701254
1.0435603423646085
0.9446563331598027
0.5914256355162204
-0.05589219383253388
-0.06147235195865791
-0.34915096684305647
-1.1449537077006342
0.807589882459043
0.08129171047523992
0.7998177237827319
-1.0083621512665983
-0.8567126130755991
0.822096887833942
-2.3778580493951518
-2.6650073300463535
0.8895235501946637
-0.7452309712879498
0.5515023408734772
0.6607884951767118
1.0064468588701627
-0.5685292403194102
-0.737502865748809
-0.7976679543073074
0.22619303093993248
0.8135179397571211
1.5453481587314903
-1.321547803360645
2.3105414150665067
-0.5302439490204534
-0.43633450408639873
0.1745622725348628
-0.8341193552187438
-0.07082457918216778
1.8732381516125773
1.4204766588149482
0.3875330241979318
1.1068050979374444
0.41130008017852
-0.06464606427246063
-0.7827489338306234
-0.881840033067748
-0.42636624265507694
1.6577728406106393
2.3775450429517013
5.187006599788558
3.7588222348116136
2.9526142434856686
4.361800910946566
1.6920285008450457
1.6208843873069507
-0.8630660122583076
-0.6366827466994338
1.760236923467226
-1.1857413460192519
-0.37703718931562846
-1.0961912400629492
-0.5995788881914872
-1.6770445320690193
-0.26825744662750844
0.11982452534235657
0.05084349026807457
-2.1061010710390216
-0.3932426991652099
-0.4682848414231825
1.3954142251201136
1.1952843711961598
0.343689495521423
1.950664743550076
-0.5800565726280007
0.3548099090435622
0.3702598727776807
2.2746154381344437
1.575996532155244
0.9938370559637149
-1.0287084121027854
-0.4978513547292196
0.5614519397262462
-1.1243426618297692
0.30771832517895653
0.9115583407937192
-1.6743952777855209
0.40238616538175254
0.9532884523425773
-0.4367316206827622
-0.23692122217881328
-1.6786716947838318
-0.4085918562100868
-1.284252306390318
-0.6660524187104365
-0.24968103714879142
-1.050377940548798
-1.1304871704911839
-1.4375706371167876
1.4536497642143558
-0.015464597914343396
1.1713391194673881
-0.4299140641831028
-0.31096094041182004
-0.3875039837195579
-2.8624834946930986
0.8372274582940054
-0.3142548851853962
0.20145895028848398
-2.1125402254476326
0.19987856278833274
-0.11342219582794738
0.16484681173268856
0.04823311327016301
-0.24218142380668295
0.762761348345391
1.2760505236008985
-0.4674137088666323
-1.5517324554375542
-1.609773286538604
0.38375693943458455
2.306547897367272
2.267173755332411
3.1900753571601976
3.8806423178319966
2.0561774522532152
0.6421796337354455
1.1979579338763493
0.9895293258828478
0.4563468657770722
0.1907491428468091
-0.9340465737679371
-1.9386185754053211
-0.37528333680257225
-0.15019074244828512
-0.05299879299646135
0.9274461914464374
0.17962161381016128
0.4402939088038067
0.09214738029512018
1.8236589098413691
-0.3930201042488484
0.9421847392688423
0.10394374165432349
0.6194478557758812
0.4148487835456316
0.0899635296718887
0.4815633854917867
0.24584691367041428
0.39312286972896604
1.4263290890943026
-0.16416854297492764
-1.045195164681576
0.1496236673244194
-0.6278114119142366
-0.5826659051738088
-0.2994745109420184
-1.2014338544973633
-2.520087750962595
1.4225249008412846
-0.5484865205585582
-1.768677266206308
0.4506179052352093
0.8053515767770834
-0.3066914085235779
-1.4960507339185014
-1.4982841029440992
2.5270430046350434
-1.835831485476627
-1.6122835393332453
-0.3703728123251946
1.0615219234945228
1.8547269054304496
-0.506926058270085
0.012226270654424248
-1.7507187648819365
1.2107068806863963
0.07068873663370101
0.2999838956038511
0.4789079687127266
0.16894975148749358
-0.34195409869488996
1.613025219417729
-1.264264849482688
0.1215988066773526
0.4116072691566447
-0.13973207869337284
0.7702633769402631
0.6257329371654858
0.9578825415912338
-0.27981842545677316
-0.026477826769269214
0.46579392189533253
1.5903930653892848
2.9440923563983183
5.221599307649741
2.5866583982676596
4.679925822362561
3.064314017313441
0.9852695756774748
0.04663038869759428
0.16458929296009914
1.0281976993759385
-0.823762490344601
0.2969505918989468
0.9140561408710619
0.8620294186785264
-1.685230264264727
-0.5252414194012123
-0.4696716266969575
1.1460503930157915
-0.5033605059676383
-1.0747286487517942
0.4204813683504445
1.4979417340900383
-0.26962798692013346
-1.0013830613110397
0.18912493189319451
-0.7540228592528866
0.6187514524762733
-0.5114230753398469
1.2840629344862957
0.5993197116352302
0.6742183922182112
0.9206682986444263
0.7715670069942493
-0.624550594463698
-1.1969271176294183
-0.38912113791905334
0.79479441842377
-1.509803848904193
-2.233736437647592
0.42821036085413694
0.7576321471582831
1.2414974388613413
-0.8496704524436425
-1.1410609399087912
-0.5532405749688619
-0.14746791288031064
-0.3454615606999279
-0.2542214796890642
1.6456342312292673
-0.11497485294218407
1.4496296781508096
0.5341223386984186
-0.7864063554336872
0.791983733501861
0.7267069355827607
0.08397458601328903
0.06184701091538604
-0.2898490934184845
-1.2274453180267042
2.0623441255279213
1.468191019790297
0.32228447422066797
-0.4640594780683104
0.04669592400586284
-1.1704900421517748
0.3516716766923851
0.3064661571746041
-0.32827481574877776
-0.020975946803694762
-0.22041360172085
-0.7014713712156079
-0.5602992326708399
0.6053672108836969
3.128111990076
3.258457880451457
5.269402884704965
3.4917531507431816
-1.0668610107436793
1.090856152535072
1.6565154581867598
1.8908555964771467
1.4345560870475549
-1.8798597095245322
-1.1944079304307276
-0.09311152786624613
0.519428903116853
-1.2157916847036703
-0.8097157683431979
-1.6825271077950263
-1.9712591101189223
-0.14930862465644812
-0.44109097128810837
-1.995832212795901
0.2884206995825882
0.37828000792931504
0.3931905028842889
-0.2809399413163985
-1.3222605285322204
-0.6675281815860812
0.7710627815404655
-0.09054866546329834
0.8070755901674052
-1.4367226990104998
0.7896326862920678
0.14367612983032407
-0.14205352068188812
1.0648247788222542
0.10151518364775458
-0.9892493490621518
0.9536142565925663
-0.2783911175604787
0.1723642022073374
-0.918621749858756
-0.1658935182556878
-1.2180849589451732
-0.1739127783914906
0.2797503349265631
0.5810122027062
-1.5069688072900016
0.8515513471314896
0.6895353493199473
0.04630141768124729
0.22599539402362334
0.4604501013900869
0.13358325149283456
0.44235786835324187
-0.45060815473535726
-0.8602363149341258
0.34479600024198653
-1.6079870622037302
0.8399997878821256
1.1269260954233027
-0.9567473907057579
1.388244756990173
-0.30780237354121
-0.6333313698682561
-0.6429588094793113
0.5184317489246073
-0.4069635729685031
-1.3117281900281361
0.3416846837375119
-0.8644579240301193
0.8938254026932727
0.5952487257666206
1.6153592527720237
4.240893581496914
3.6546035602391975
4.723182727970345
3.0315420694131854
1.9347059526318002
1.3164251488361456
-0.22784273186374002
0.80110938725346
1.2647866592847568
-0.6962071848016071
-3.0871775335978655
-1.3079431414189113
-2.424665913979321
-1.9485355210069457
-0.3922806281728579
-1.3152663641987234
-0.8852085239729497
-1.875883574036001
0.853807415077681
0.10496072930097652
-1.6613305635862432
0.7268713098800064
-0.5188402199197958
1.4146812421169295
0.09729716763216091
-0.6231737040100237
-0.6345208998631497
-0.24734648085385763
0.7304983334415989
-0.46372210977806083
1.134623245246813
0.5322771071185222
0.5034902185104535
0.024437004957282765
0.2609840948131227
-1.2377514604607827
0.08880263930501281
1.7837418553193154
0.40313852288837765
0.43067485850882714
-1.5670029761890163
1.1238128397272997
1.0748425486444868
1.1641411090246745
-0.9572825815042543
-0.43976854353108574
-1.8564393080077943
-1.4333660364877836
-0.6070767618281593
0.48383172662078194
-0.4565722902368574
-0.6436701713000076
0.07708446714579853
-3.2423719788140457
-0.6632200286991883
0.3452848524607756
-0.6064199224116263
1.3949175876193507
-0.6570126344917581
-0.8512499444403274
-0.7967805577707223
-0.8605661418578816
0.20528721312141396
0.967749670671635
2.3695938920593185
0.48424052263070855
-1.155543356526743
1.3780448790922384
0.739792029346164
0.046428823482277774
1.161655850003304
4.101630694228585
4.208111507766777
3.977574515361735
5.865608090331666
7.171004222898465
1.57087255147021
1.2991262453949914
1.5153353335936175
1.4903854497271172
-0.2929824529057481
-0.16005219544140914
-0.6502188717500317
-0.6168033173392529
-0.5775965920202182
-0.909788764513537
-2.6228294471969953
-1.5116173790652196
0.016501488844551576
0.5119975911495326
-1.0325782052267916
-0.5631264956578125
0.6295590187654972
0.7114910614561936
0.007158519636155394
1.1999345487071047
-0.9815638544618697
1.032563420029135
-1.6687732409216172
-1.1860557287538667
-1.443011773394426
-0.7049096977292031
0.5594806362552609
0.5787984490932757
-0.2168296976106086
-1.1376847626468116
-2.1727974962118104
1.2144851708540092
0.6702513133840772
1.2570114993066719
-0.1724626683106179
0.6730705482650355
-0.414128595236738
0.5264628578653633
-0.18091907158945536
-0.9709092118406313
-0.027808670706438637
-0.1700950629656441
1.1626046087284354
-1.1042475441266117
0.8739874726433502
0.18964323269072567
1.281847881847213
1.0195888985437096
-2.7855498291504857
0.6991720766826632
0.8741359520809254
-1.2378731330960475
-1.750204396691759
0.9814214035292669
-0.1411085624822092
-0.7811115580500056
1.0745129479148219
0.21350214162526537
-2.0844964341047705
-0.802034064305535
1.0663346116702657
0.18397998296328233
-0.5187108881071216
0.5309401732370416
-0.787024263321891
-1.1661772263217514
1.3142720921701054
2.801687533635322
5.094172823438505
3.0732715163261335
6.2784878910691075
6.505611263276875
2.678910199061312
1.8771651631047928
1.5260021350834991
1.9288136234997357
0.5279208999176151
-1.1385744470146002
-0.6670502178163528
0.5444081599373033
-0.07210858739215699
-1.1687527317259039
-1.992035045404932
-0.00837563786175477
-1.2132180001565591
-0.9343987913775352
2.0250745723910124
2.1400207786437497
-0.2938829191235848
-1.7072417212174604
0.8654849705881165
0.27292540154099204
0.7415075966230051
-0.6111372713820038
-1.0446010037063298
-0.20987685106842766
-0.01274038556589771
-0.7964750673141813
1.2434926280750842
-1.5054152991000183
0.26975851529411454
0.07736547736746624
1.1476205695283503
-0.6417983892203629
0.838862147113236
0.29036629035883144
0.3236291023767315
-1.0888908998905302
-0.7209994956774994
-0.02310604106587555
-0.8939229449090897
1.0584698064364582
0.1667263721521355
0.7155588715499892
-1.4083783460834034
-1.8586377516240922
-0.513970364407815
-1.1538461037749606
-0.22708645096887878
-0.8020012861553034
0.21528529193674978
-0.3026236635319218
0.5368756291760651
-0.8107998949769426
-1.7535091978255803
0.920227319228602
-0.7740645992780061
1.1743883378714424
-0.663866272942354
-1.195836090366841
-0.18651420948806496
0.02371242617407643
0.16150624127303786
0.47049360407223034
0.24389815441225227
-0.2489189602271501
-1.321794148138591
1.433983606135446
-0.5149173140565702
1.3261394892132858
4.550886766779368
4.194819159980907
2.753429814390434
5.076982212330235
0.350731672724253
1.0793422407878408
3.225545347746706
2.344633620756928
2.6449129676114302
-1.1001900941438663
-0.21894510629327166
-0.31261842814476987
-0.7205717717481444
-1.5718677548839999
0.403199536757061
-1.3994734980493064
-0.164603912348057
0.13070533562100375
-1.5272319371981444
-1.30716050473523
2.6603610195810274
-1.003502520618137
1.3381061496738347
-0.2660200202328544
-0.595457435973547
-0.3043575196986805
0.5129410746833325
1.8850482335641185
0.6917303096051882
-0.01973029427067169
-2.116584293520432
-0.40019448234968574
0.13895300211604258
1.3677748108914132
-1.3134750060429057
-0.2775739923476482
-0.5911584152340789
-0.041470467292157864
0.2552917246346794
0.6771030712487031
-2.0762859824572315
0.21511329567833612
0.37556070500439026
0.10466174338950647
-0.30202490266176213
-3.4191966390770543
0.6740905534781904
-1.125335471583862
0.3742627250646837
1.662053381153308
-1.6385972018519894
0.7709293235713959
-1.1936707637636024
0.1676660729077029
-0.11010947328826985
0.8738407404015327
0.38601507968546056
-0.09090792827400607
-1.7386533890621971
-2.7999707369716194
0.4888859628930413
0.8068178302344242
-1.3513526245063532
0.53724485367579
0.07896527749646198
0.7978937319271862
0.14131807952598563
1.2719770623314954
-0.7079614995073485
0.407192809824843
0.06590287949601964
0.8880733788821953
2.357855777819929
5.927881120492059
7.0757638815724695
3.3613442368164037
2.218120967932043
1.715689512667121
0.12932951222196626
0.6179904030334424
2.125158992446986
0.9606638229562832
-0.08449608154509472
-0.8747718658122108
0.5859289702717505
-1.3613357637641836
1.2360929900196709
1.5414106588714414
0.8679763786306809
-0.14877464295985268
-3.006765528799601
-0.11045483807887266
1.7870181462800376
1.0146714022518868
0.746995084701286
-0.5657750469230357
1.1062117788708918
-1.0992242918664918
-0.22579283150029297
2.2166146308110903
-0.5195935267786944
0.549604249543477
-1.5961562519311485
-0.6952426752556616
-0.10781626319508034
0.35201218444522026
1.7740196179029384
-0.4574578719654561
0.7545323102612511
0.5230013490841084
-0.5426578302730006
0.9988252047517374
0.8370422056372926
-0.25558022365530875
0.13175717103225193
-0.7997841082707908
-0.8538756340974194
-0.44866839944026105
0.6774169041533373
-0.43694408459960543
-0.5869656100517356
-0.22272341178039615
0.43854510032752697
-1.6501794687311033
0.6707769227637865
0.524866187002329
-1.1418068465489732
-0.5559999209426465
0.5016486742756299
-1.9201448195238113
-1.2216016515012198
-1.5054360759667027
-0.4499259631015585
0.8863696742040423
0.8637811890664059
-0.5283112468330912
0.7991205670087317
0.6352251441652115
1.3664623924851695
0.19420269660942607
0.8679258460457782
3.258283868801638
-0.4351626424560582
0.9541503789055992
3.8218366041428338
4.241381063121681
4.667519072148763
4.158435475099882
-0.30091576428320627
0.9852883453441422
0.4700116447277884
-0.7406083921814649
2.0513768718515504
-1.1830993942744663
0.26442384057019563
-3.8058838296744337
0.3590210868368676
-0.7158722586435142
-2.145911958879336
-0.9116947928392997
-0.9998900130620443
0.6235686888921171
-0.6434491415696124
-1.5504898546578578
0.7139458309116156
-1.9214317943982087
-1.0278700538080723
0.31034957735411955
-0.6602862008222095
0.7121045738823493
0.0960210347060955
1.0283102274240925
0.7264346262122915
-0.6116191616887232
-0.7985946316690898
0.11902635940922493
0.8966255258664926
-0.11574088023968115
0.38750284701014315
-0.09966372420142919
-1.5661402453371704
-1.2482509600999774
1.4527241399288147
-1.1726750696557235
-0.3493940724080213
1.422452441453867
-1.3666722591573208
-0.6555211920646129
-0.5132374136076407
-0.3451991146875111
-1.0285445914493672
0.056688884502774844
0.44450389764230297
-0.38489906161258974
-0.35428117660161923
0.8194712069323397
1.7459448211111317
1.0141498004173033
-1.2807314768655116
-1.253977040322264
0.6623784151808291
0.3064603476981055
-1.227913820946683
0.2590755733612418
0.16219112797175814
1.5543582915704572
-0.1832675826487436
1.3824312334902735
1.5190136480422827
-0.5293661614142321
0.5011906652180624
0.07848720771699558
-0.25493280091866705
0.13306852527495555
-0.8615256785082138
-0.06672280659250021
4.281881374097272
6.473691717529123
4.634657143166455
4.621216970984328
1.7163601543803915
-0.4302309007272169
1.135125893048862
2.360099556757774
0.9133382936300877
-2.7658972028297355
-1.0601709221379763
-0.4116831838278009
-0.5551759126399578
-0.2982750967973413
-0.46135938138275884
-1.6600829761503357
-1.483997385263511
-1.3044266290788928
-0.14929071217694106
-1.1467031913809727
2.161232646362036
-2.2874158414639134
-1.2215721881764408
0.34875269127251773
0.2889949239007292
0.26421303553962316
0.8066449135023135
0.5815073852667437
-0.09553707625348333
0.22185941416702248
-3.183269687024087
-0.43216260186487115
0.1469465482553273
1.510698111058842
-0.9954886473944327
-0.12222031245443638
1.8523312338696956
0.5399533103138388
0.08845741612108435
0.7868229563180615
-0.6189770949433995
2.315684845525925
0.7407956749007033
-1.6930646736250599
-1.0115580789593444
-2.018794416417198
0.5985820977741687
0.4123541285962049
-0.2739334915662093
1.1056311571837814
-0.10235687083253528
2.773342614616629
-1.3406481198384348
0.3838984657366585
-0.3045411005069945
-0.5261709507204456
-0.28857680245387163
0.24157598434083094
-0.1617197505442227
0.8203809694270521
0.9907557092913366
1.6377333414296813
-1.2194530327125517
-1.414038920378501
-0.23412757088552769
-0.7199235082173243
0.6568888687925516
-1.0922641438316751
-0.33448816788003316
-0.16993831152996086
1.879225121060544
4.093751488684694
2.7103767296573205
1.8317818680017393
3.5816788571771543
3.9134414025298776
0.8645009518193796
0.7686879623054352
1.705854703695158
0.38946831374652224
1.165102308809449
-0.07598626961056831
-0.7320434934220479
0.5392836214206479
-2.572025022037109
-0.5690649775521589
-0.41458484045121263
-0.929173387424374
-1.2722115572184751
-0.3591367945434852
-0.38823346798132163
-0.05704060176186193
-0.18471218585770519
0.004737922464366717
-0.8216296079152338
-0.3209129625052698
-0.6319932149479801
-0.411876500189041
0.5025362726036383
0.7266711284816314
0.18823608301861194
-0.17881851146595068
0.28456397211919715
1.1823768093433902
-0.4607933483533127
0.32957794507950133
0.22914076375026612
-0.40757894805783934
0.4716203798920978
-2.0070365267440655
1.2070340542576088
-1.1602388933865764
0.11591848081802797
0.44405366504749527
-0.3054400842413424
0.19782141668430614
0.5441352233375772
1.6320002412131411
0.29797379953643066
0.30623622899118186
0.20084457704885342
-0.02947020311164586
-1.6170923077199217
-1.071667318518822
0.20540266796134696
0.2605714172853563
1.5339157475032246
-0.3322437806484851
1.5536236232211942
-1.125000905536822
0.3610736833870636
-0.3247605615166385
-1.1101125869819546
-1.6074836823794
-0.7624347779973406
0.007512312073998217
-1.0797243740068478
1.1454394846993519
-0.43722872189480005
-1.055455672026152
-0.15618776021136574
-0.7709930352620968
1.269791328031139
1.370859405200877
2.8143427136158445
5.609731179488228
4.143835489001514
3.8794220453362143
-0.21450492934371929
1.3756941524968969
-0.6664586270250117
1.1935359380350399
0.8861763838630357
0.8491360513433184
-2.513438862627044
-1.5235847713087658
-1.4812271128541188
-1.5055860946065165
0.22889359290882758
-0.7044438127887358
-1.2136915319543289
-1.2118963925846316
-1.3878147225350108
1.1604168634752692
-0.3877787537723317
0.7528210501046438
2.391644759503601
0.005479932835601459
-1.2668264117383612
-0.16927273658401254
1.7842046785150503
0.8148187130551485
-0.30976623792134933
-0.30851876529801037
0.684585502263382
0.7920722066733246
0.7152663126771511
-0.42111520886845843
0.24654283936969584
-0.4767089854682791
1.180225895548253
-1.6649819582580396
-1.040221042395177
-0.9446131094768647
-0.9767994615513714
-1.4709299531289604
-1.721741868371513
1.2005101780917935
-0.27781824439994107
-0.41637175236472285
0.39104064926953414
1.275811187120584
0.1884211149070619
0.02682037467856195
-0.4732511757262182
0.5382867942935783
-0.3140100274607311
1.9520213383690628
-0.24986494658183928
1.3136485915875624
-0.6374515432982877
-0.8176272339475766
-1.7481053929349244
1.0246290108914884
-0.021814296836830765
0.49204644234294237
1.338666289727933
-0.9315194257987346
-0.8364382934658235
-0.9891973626562424
-1.96725895000366
-0.1875701858043677
1.0332986844297913
-0.4188092663004194
-1.8549806022000854
0.6816241895057111
4.087890094958846
4.401121971266248
4.360576443188032
3.6741303499544884
0.500301142954495
1.5278782253678878
0.04005373095865514
1.852983285367781
0.3691047916904708
1.0688304035298757
-0.36454968705083135
-2.430387130569701
-0.2673241433668107
-0.11005915202225852
-0.26629754962609353
1.6135434605455887
-0.5803923708696299
-1.9155818543903194
0.3606852647621128
-1.9690275501303856
-0.6183759532753965
-0.3057861308789897
-0.6148806328026011
-0.040189442059814326
0.14678408404454987
1.3868438251774418
-2.552970107773577
0.29418466816028443
-0.9800145015812568
-0.8107018262458262
0.7923870850744613
0.19954470020330123
0.6312424291747644
-1.2209496938146176
1.0082510527627686
-0.6467131198312901
1.618947199681477
-0.6486645414710838
1.4859135763167526
0.5522023140037472
-1.6093652734969048
-0.1424164277675373
1.9641042755733564
0.5964682625314542
-0.37775084149431537
1.1672899888904733
0.11729974690183684
1.6671371597039126
-0.03987130174519393
-0.6142512925147103
1.0569119445837665
0.20180995129191737
0.8371028551714681
-0.6300488436190108
1.0000025722755528
1.244833157825032
1.4587431193501583
-1.4034269878180623
-1.2651574640069485
-0.9763988540098208
-0.48294308159247223
-1.698374512757862
0.6414579482564496
-0.8502937121857147
1.0826675555451064
2.2302853843342123
-0.2953985501857431
-0.9969775251767702
0.8692021011781372
0.035038201813218775
0.2664318232592863
3.3148240292176645
3.96883784940066
3.288908546795528
3.1552024297636008
4.4262787262679435
1.3502856880629803
2.1718232976286727
2.7651428314107105
2.976038455498256
0.6893751766382052
-1.3308556132250622
-2.303470972177797
-0.46361559162727606
0.23179889629692052
-1.6098503198101985
-2.1842118069382126
1.1138925756014448
-1.2202084386208407
-0.4777444720937997
-0.826182151196315
-1.1563054286260628
0.7149246601239228
-1.4683301154826605
1.2096581198161296
0.10309386057078221
-0.096301313454244
-0.2961794020804259
0.06436663001983706
-0.838878924466872
0.1636886775342088
-0.9091145561655376
-2.3640107320434574
0.7672045589538503
2.5411195911568214
0.2789035008439182
0.47925581251869676
-0.6395229602948359
-0.4568110778167631
-0.32160496913327585
0.10808054186939767
-2.0955238446678024
-2.5952746658862145
0.2668513980670686
-0.07622918458681312
-1.5656415554589405
-0.9064799872998176
-0.2997243438376823
-0.8796810809850579
1.3425445414642623
-1.399289931148775
0.7665756309426869
1.038969329402036
-0.16357644090063989
0.7212657325004647
-0.12320333366987785
-1.4774011246075822
-0.6199356875989399
0.4064043946870706
-0.5293704003634812
0.7643658110808599
0.9813919737731933
-0.01912322456805774
-0.7051338981926953
-0.9072912791724712
-0.5386962250902187
-0.32605154374318923
0.35118202334659565
-0.9574853594259158
0.45768005891606545
0.6468073486354138
-0.0362141526963729
-0.45714118288774364
2.4868981751113006
5.1195690383275165
3.8826117546903247
5.453009961084521
3.9850777574185448
1.779934766145245
2.642160736794288
0.09975416019924438
0.10796168558197977
1.3827202668134912
-0.49833503346709956
-1.8299486419236344
-0.8572227034851372
-2.1936962543240934
-0.5750529902045074
-0.5450578318409462
0.018915757770122887
0.4785216425728307
-0.9038570815280161
1.2088303400131455
-0.609520227373259
-1.2376238215740016
-1.0779580802595665
-0.985846681171256
0.2912689685020298
1.8231336016465485
2.178456320071418
-1.732715562481453
0.8042627560542863
1.3040029450754989
0.7555650939592082
-0.8997563743916268
0.08831467912827766
-1.1651405982707257
0.7170315532931861
-1.4228025223194243
0.34141287838962026
-0.8630924566268511
0.24739478923134622
-0.37494140242828217
-0.3567555208131071
0.9717294593121019
1.4416230379165573
-0.999455689838571
0.1825173152601965
-0.7979927694145843
-0.7515933061545432
-0.5004962120214065
-1.585889301084836
1.1316159388633111
0.3133744967045224
-0.8113585491054924
0.011955558842214463
0.9870734219095129
1.2617162724803312
0.23829220192352207
-0.8478667086780192
0.14561234600982137
-0.948689737759862
-0.06873405784554733
1.076979911959854
1.053369029009328
-0.8610197940078443
1.125542725750171
0.7269593134926278
-0.3381514159184045
0.415366746244219
1.470913682769996
1.1035294009922059
-1.0971771659579097
-0.4102724854827082
0.34775938363868897
1.0597400944177093
5.615624127631371
3.989642823585851
3.333476332618903
3.350966788056652
-0.13442795012225378
1.3881816439069317
1.3960652351044684
0.19561252084747915
1.780021096062117
-0.7701450433255104
-1.6632051335020692
-0.2773396953496116
-1.7976850969957792
-1.8050513934804906
-1.7074930527294074
-1.3822730874401887
0.010856708965870557
-2.4308643471054574
-0.3144195058558218
0.5932340114168956
1.6989865307394916
-0.236182532057362
-0.5798544584937402
1.8385095350591683
1.227352759626368
-0.16813503355790477
1.2539413042358536
0.9290824136221206
-0.04542357503799544
2.5015268848247683
1.4611441292173561
1.9440779692920418
-1.2798119641048027
1.866006909728461
-0.015390626853585249
-0.2375978146447757
0.5488872580424297
0.6536274351658943
0.963416013177036
1.1938297453635431
-0.8099434616540745
-0.9090181426342445
-0.3117030389488329
-0.3520015297499324
0.16073040984796227
1.7527712902344261
0.17366513502821734
2.3384283367039607
1.490228302744586
-0.46514975826603416
-1.564743614283261
2.342351491217352
-0.6369609699708723
1.0305218157789793
-0.6254370648867763
1.5386674773187161
0.6400112143019799
-0.7292775081169653
-2.045273050980297
0.3681193966093863
0.40447527871640376
0.8988868352157957
-0.7670907783064541
-0.6381659076455064
-2.055162505630251
-0.4464911699398093
-1.3501474126004007
-0.9194577057272337
0.1616937053757387
0.9026620968038492
-0.8743411909604746
1.446237020648012
4.774548562594654
3.0243545475732523
1.255142606010032
3.958467153485258
2.3580078214314515
0.5786669074919901
0.8489711513238065
-0.7479122166850958
0.7417558071996407
-1.4974793730036204
-2.103176221939133
-0.8057549697422914
-0.25071645272222143
-0.6127610647085481
-0.8369069534984576
1.1231834176375242
-0.04698942622552599
0.25588188449566934
1.1667277883488398
1.071821567239316
-0.6975075698168594
-1.5462205333673542
-0.06510486606756882
1.6333493959047498
1.2290337447910842
-0.38220813424594613
-0.229145819739433
-0.12296201469622312
-0.41434293320368076
-0.7062457822212964
-0.7236402257477021
0.5371652392033419
-1.0633692798403909
1.494827722553373
-0.3678446074768858
-1.1524945016267674
1.190838911975415
1.413928103515395
2.968676603815951
1.5617326838873833
-0.9600320827676276
0.24696385154731207
2.4866335480357384
-0.7782454418461185
-0.9640617210682714
-0.275584554401624
-1.2590684068871907
-0.6819818523194496
-0.7437148241798865
0.759320435348516
-1.114841511453333
