2.3098008148182934
3.63986329649392
4.570293438167344
5.358778796595219
3.967467100878693
1.2339362274906347
2.5944981689475552
1.7938476621271264
0.8102781728750078
1.7693434807158481
-0.704835119304118
-0.540276104287065
0.10033080849423483
-2.0569330414134375
-1.6404575422612246
-1.0448444829228591
-1.1968219963519147
-0.0063418198414476185
-0.8257155612006113
-2.0589526653472308
1.0325524517789537
-0.1648490412169255
0.29278751655275326
-1.2700973219500469
-0.7045788831887243
0.41220693411018205
-1.3972873271411446
0.6371948562543409
-0.8204843399904337
-0.36205858426072113
-0.47385270465801343
1.5590366183297046
0.28030745477021957
-1.1292996952361631
0.8500001392388469
-0.9884034921628718
0.050238525971325415
-1.7475073866286976
-1.0000793347199566
0.06574543640320771
1.0123441145146694
-0.1807474376583501
-0.03772820342932713
-0.5468233987300506
-1.2900082806601896
-0.547752998710268
-0.04516277184153883
1.3413788228094157
0.3104640500481704
-1.9793896528225021
0.437221385328673
-0.3972285624934152
-0.36669099138681793
0.17840012015771223
1.4686108743536763
1.0376782406385594
-1.001819947566713
-0.16241453036750136
0.5907477156615046
0.998414505383097
-0.8321583146742586
-0.24442838393323832
-0.8984559633976006
-1.096873677235196
0.7812244162271235
1.61790319474911
0.07585104658612549
1.166800729079693
0.2795090866514739
-0.746596490954344
0.021403661371809657
1.486158215278518
0.1512523716496741
1.5238249964108888
-2.5306373347839433
1.0441423757058799
0.16161366659789766
-0.2049043981137071
-0.17980371587200855
-2.0520818714212883
0.1256534134618071
0.37787200773096513
3.781802736517636
3.223719674632914
3.124908906568071
3.3083202879394404
4.9204120737613355
1.5611330311374563
0.6441132032388889
1.7750180497287096
1.1478231395093228
1.9839195048659013
-1.4066210446814762
-0.5529013089137846
-0.7106006840330555
-1.8300272449935546
-0.0949725533752224
-0.09924998943779809
-0.39506311900605195
-0.6931232504367373
-1.72038231525451
-0.6767428483276978
-0.49682809940400563
-0.8824243830590971
-0.20221006191898283
0.40501351828989535
1.8605488072933767
0.3065220527631177
-0.07292301241799753
-0.3694533554341906
-1.8800573354483259
-0.14705104501477465
0.2370786710957886
2.6972023030029963
-0.14561152949654046
0.08715235907877661
0.17620693354016853
-1.1288975051894665
0.8454356200095969
0.4722291030737373
1.094421304984776
-0.6391602721424929
0.8993656825168502
-1.6734092418438562
0.8150281929246014
2.186757108131369
-0.8501664680322698
-0.5786882788223913
0.23054986310188197
-0.5023089447831125
-1.638185082417526
0.28031174078898924
-1.0218927905209756
0.6040701738838948
-0.8879346492416498
1.4526630263075768
-0.4615754300647986
-0.2510678652541425
0.7425074884952394
-0.9751984223702119
-0.03670482017166202
1.7543994844416253
-1.6433131860939132
-0.06896898294437107
0.6410710639399365
0.6891893491627521
-1.1883017969069565
-1.1769184647963835
0.7587760711489268
0.356939585977499
0.12102976867986909
0.3902467141637742
-0.7638878306448351
0.2820560324339083
0.6187023824500529
-0.5631663796976091
1.9071037987644244
0.6215310874330556
-1.0292873668208116
0.4409787880400846
-0.9663371279841819
1.2995901356089552
1.4011597760137773
-0.9213694301839505
2.585265382861219
3.4387473952518754
4.148595762997399
5.371592779827688
3.0243169058436385
0.6503321081631093
0.3942903013947576
0.6227001466981024
1.1315097491134891
1.3266346679212313
-0.09281416005129695
-0.07084938244020386
-0.7488346802597626
0.8879354698793692
-0.6746335567725511
2.0747251996695377
-0.3099449471709652
-1.6142969437583985
-1.903459676469934
-0.2220398876548847
0.022934108928076263
0.2065227748781151
0.3909596585680467
-0.16963883993427645
-1.098145987047533
-1.3977490759359414
-0.7295101264422308
0.5964199384642073
0.3843075869343267
-0.9456245049194543
0.15796157212879014
0.1418381559309836
-1.024968254556783
0.35532549539453695
0.08149636657867863
-1.1631780532070077
0.42039730233091255
0.5532525376631463
1.3921937027071205
0.9039733990961827
-1.5504611913241337
-1.214515743528854
0.4070377400635217
0.29539085597897785
0.5586627880365926
3.85692096375975
0.3550754106795717
1.2533935119861934
1.2573643369191772
0.7229589210400027
-0.8239688812314403
1.1563954146272886
-0.6234405207233599
0.15446504389768134
-0.26721883059913665
0.3399772231604343
2.3557119453937254
-1.9197243950297147
0.7609564279209455
-1.7544728872389594
-0.385155695609387
0.563593345497224
0.07286646813834534
-0.8088095539088795
-0.6964419934741751
1.0250942965408734
-0.7831157092868577
0.41698877217954045
-0.13008217483085943
-0.45920902369474137
2.190463070970889
0.5899689231494655
-2.5399190096704913
0.13557895960831767
-0.6190958609124259
1.0181752218402074
-0.48033077861288714
0.2922700988062832
0.754240747605054
0.7533371291092826
-1.2612572249593241
-0.18671814163221173
0.8450376970533706
4.290988755875086
6.879980920593604
5.477066546551124
3.6565524821951483
2.309800209904837
3.678378942663284
2.6511111963583076
-0.26247231234353563
0.6955914656934783
0.5340969905199183
-1.462276370960211
-0.4119095950247792
0.2452844366005128
-1.7062109904480787
-0.795559751541246
-3.6803461868860965
-1.5673957867359574
-0.745973121918795
-1.5540833882388028
1.8053172856397943
-1.1263640616701
-0.4240491877413696
0.4530986955485705
1.5132206419376075
-1.4021208989603988
1.4554689934102603
-0.16419767481907196
-0.5767885375394559
0.4056834702558136
-0.04456189873639432
-0.46951648674762225
-0.0056622170336332045
0.019847821520489917
0.0269371814942186
0.7250204579914391
1.3008981530497314
-1.0752326498473548
1.9775553594844857
-1.8134228614559817
-0.23745414297675568
0.17893026914001653
0.30722988580380933
-0.6054138164049068
-0.03190793563275254
-0.18180082029099198
-0.20688287496085178
1.0224329397152019
0.412739324378231
-0.9783763131637473
0.9400040628312522
0.3502875548643959
0.7731340669077544
0.756222372043774
-0.6046138687256454
-0.7238618263027063
0.5804967342833683
0.5825118630781391
-0.14394743210573277
-0.2109232571631906
1.0783463485238345
-0.8380356182433181
0.7887874827736685
0.13837274876796163
-0.43676789468613764
1.2079915546146123
1.00011963388198
0.5150558786686658
1.3376745965901289
0.5277070747020642
0.8173823445664901
-0.3593268648599621
0.21212904744480032
-0.5346353713118636
0.19109069621606461
0.9847203828877766
-0.9809294341130567
1.705270339782048
-1.138862217770347
-1.0378686635920904
1.0724108725356507
0.6275690753803183
2.0014709769634145
4.217283167061587
3.2530727073624823
2.6022863974905395
3.5193485437729946
-0.0735589910723782
1.5034959898288116
0.7729777797461709
-0.2225909922627671
0.011408691473699495
0.07462564101254668
-0.809850035927502
-1.3725889862677714
-0.2594107041230453
-0.2760095506351161
-0.9674392253153161
-0.6408336468385227
-0.18192727477499934
-1.6713310100220473
-1.99239547834407
-0.7951823051686329
-0.0226443885423859
0.1497864859127527
1.677783509131258
0.7319828050029917
-0.22427103297511103
0.3150163095670962
-1.089693160071055
0.010556024557737024
-0.16537135441579107
0.3680202902724917
-0.7762202737744076
0.5080385654448254
1.2722910711993132
-0.03910228243690589
0.2552180306966106
0.8452974351917478
-0.12680818709589914
-0.13701897047298636
0.28735396626721577
0.015464540175423022
-0.799199628292361
-0.15796731624353524
0.5356918370587052
1.4645065844305227
1.174655391143777
2.004903802185505
-0.4351870825004677
1.005263453982456
0.20153580109343355
2.153646060438574
-0.8696121747819215
-0.8879905970620771
-0.5657122540569275
-2.1656957164485533
-0.6538609129822586
-0.7242408025863575
-0.016863837268869863
0.4062493559775089
1.8315574321197379
1.089770020032419
-0.3790888135233077
-0.7006785592794103
0.5555401827170309
-1.2332669628672732
1.7669085606306667
1.3149680584179566
-0.3110753799723601
-2.026600359795783
1.4295418132868656
0.15908611628915553
1.166558253052505
-1.709337054021143
-0.6833477151710368
-0.29573149884764216
0.07217738465452417
-0.44407238345979333
0.662255298922959
-0.984425105139034
-0.3019781654575888
0.17493547151630762
0.6030785660418949
2.5174949753580136
2.1146630597900877
1.6373087065192888
4.306720419987395
3.5441533032538897
0.5222425910257611
3.0194363065783594
1.3967126345320098
2.250215343963773
1.4497871547685977
1.6972945294231798
1.129779374858578
-0.5081909704171065
0.7018810731563571
0.06204586606507165
0.8273722522952722
-1.402659028211104
0.12494698876581756
0.7771698788068291
-2.1382791415827667
-1.4019699418434222
-2.2037263603299584
-0.03186299901127748
1.0246547313790453
1.6101028473065297
0.03183972938971241
1.5406229630899766
-1.2701615745526904
-1.6881983325032572
-0.3775619883794941
0.5904390454462733
0.23646590537848072
-1.919991593451237
-0.30744227843843003
-1.4318347904495212
0.29812857655849617
0.6858079443759595
-1.0112274989791608
-0.047209053006737
-0.6681675157073959
-0.24336438054696063
0.8134887726206356
-0.8924879778661198
0.15313809474459034
-0.6179094418481531
-0.9005046325036898
0.2632028284347839
-1.003038745318483
-0.6106027008546213
-1.3241748391259087
2.143535052381348
-0.06407861281435306
-0.7097821028650856
0.08615520623982914
-0.4158354760939087
-0.42017662507375575
0.5137723585704865
0.7048567439945793
-0.5743859327952289
-0.5936021807484324
-0.3727892231818458
-2.0320958951019037
-1.325594238227156
1.339852414006357
1.695819369449483
-0.3234536878469693
0.007859904645411309
0.3153487571287411
3.140003680705481
0.7970425598265313
-0.028035377641845993
-1.0116557761893876
-1.53885957613064
0.15338390639320595
-0.5061598504389335
-1.3770079454808568
-0.4460895925081251
-0.864602775179406
1.4632304898548827
0.7338363829452209
0.08234949522863383
1.4068366821383913
1.5512463498077174
3.98500003040284
6.050022068928225
4.934095441331924
3.384965112643407
1.6305091691779035
0.47311439756116686
-0.27127273498494675
1.956662375491294
3.168865858958279
-1.844740849748206
0.34593512593251713
-0.8870423878730619
-0.8952635200228514
-1.090096493514375
-1.2029392510390662
-0.7080964393260389
-0.8416027896687825
-0.005590907092427211
-0.2837089175470707
-0.4537787232417319
-0.6510339337822786
-0.6687747627735918
0.5648796012620434
0.4930827135031368
-0.9900662619962258
-0.11637510907317349
0.572399652663516
-1.8640516361869819
0.35061717880857013
-0.7402433403657668
0.29280164135866776
-0.901534056025304
-1.5958551909876653
-1.4628805474623259
-0.16189090151716895
0.4513634851803286
-1.2976044789316183
1.1244213231798046
-1.4014574238418414
-0.17802618107533796
-1.1345308874154347
-0.9320199734239849
0.05948722930157672
-0.8971459717844458
-0.5515082221083045
0.9125813119492687
-0.6902893646850342
0.6093447682016148
-1.3013363038369508
0.24143529271534026
1.613034773770024
-2.658067049418543
-1.0412994297845075
0.7453730631437394
-0.12912131517512665
0.5320460845611007
-0.4207685418764897
0.47408076686058476
-0.18688518873071636
0.8762605258607059
0.3086284034536382
0.2038017374992387
-0.6033780227855755
-0.46762118962904536
-0.25940764121770293
0.22725317405904016
-0.16610686335391922
0.09185206509584973
2.026620154380346
0.9483862797878659
-0.4036033739046528
0.8460134543762374
-0.22259387466379035
-2.1628174032490595
-0.8591066210386655
-2.1236207480313882
-0.5702008004605911
0.1909050611006231
1.7445389308236874
0.23921023162722732
-0.14809420917469673
2.100441235349728
1.6399486441234812
4.0903574724201635
4.5251410024823455
2.183388742735591
1.6710547923537984
0.840751212338145
0.004798703819187455
0.9392700055740454
2.7864393011754
-0.28836395122402003
-0.3362766711022446
-0.8282206707038159
-0.9057490083689086
0.379404550047636
-0.9340942509756567
0.11686684685021759
-1.0459069605558458
0.10322293407099074
0.37684275553501617
1.0133239519760904
-0.5026539697016671
-0.6038760301683497
-1.085096095846241
-0.3331755231423242
0.8631570216351023
0.7177872499510138
-1.2546905886278963
0.5885560819509984
1.3484799216172916
0.6488762628341507
2.004266549133145
-0.6817380264015478
-0.9828258259278977
-1.9227660664080688
1.499863255480696
0.5502892323135786
-0.10987581800086979
0.07871475545472326
-1.1942842615851357
2.4402088663677466
0.054926882002917427
0.07718249400213253
0.8067747325861292
0.7287483855495931
0.4861151979016509
-0.6381901019659134
0.21947206144833253
1.8099424993610629
1.2905630400124575
1.461756660481684
-0.4427454406252638
-1.3084705189148724
0.21292637380601015
0.29476904659303754
1.1898319708513
-1.7048864956988563
1.7753181784751244
-0.020126911222935973
-0.20555351310380152
-1.0239147917121356
-1.296994054692936
1.0565481590998858
0.17522522627559017
-1.038766315654823
-1.3789111604304105
-0.5692847711595336
1.7333316278988882
-0.27100944052629855
-1.542686421573632
-0.0024806562160636925
-0.2392957271055444
-2.644172828234475
-0.11970537826863144
-0.05470990235277276
0.8365815210750023
2.023688030324204
1.0271122362205216
-0.008070998545431585
-0.7387722239883957
2.7417674827148018
-0.10263922343436993
1.3126780687982678
3.7229867395322587
3.9073965357250304
3.663608280699484
3.375013704154213
0.7330607744252571
1.2296337685769387
0.6302639064218853
0.49431425940560525
1.4876745567133767
-1.0882509932534803
1.0708327365542802
-3.024254459740209
0.8173412952992584
0.6131938343082022
-2.7168543392314355
-0.656778765437384
-1.1832134843798368
-1.5719560428983261
-1.163380459624975
-0.7988316028971414
1.53485596810972
0.8484064994038131
0.7899814296087816
0.5625341114441799
-1.1658211473616051
-0.9170617822814611
0.41044919878823816
-1.6195958442639942
0.661506393190103
-0.010903012736487694
-0.38181675757242206
1.042601442725852
0.6015218241649617
-0.09133659609768563
1.0063407551885915
-1.2388916532784178
0.6850582902213375
0.27756083964181194
-0.2153176893615722
0.2613490589327321
-0.9851142088759715
1.059929470022783
0.034439149625036386
-0.673564236798049
1.2586512795892348
-0.4154011916699027
-1.4162040610396278
-1.7044992973972013
0.4616525110987577
-1.03262675409309
2.291663330469027
-2.2782584219187663
1.484752358281526
0.3953003033375142
-0.24749581774372129
-0.34124800996329574
0.49220534905740004
-0.04243016292444114
1.191556188920859
0.19026732249271844
0.11438046190464246
-0.7148844185415548
-0.021215478003260492
0.622413842104892
-2.0319221252975304
-1.541342426133502
0.8286294889759172
0.17858381067439796
-0.10174690443582128
-0.12142970850013925
0.5800733626801322
-0.5303795671713193
-0.6389076209337012
0.2599007372919008
-0.9432737840228336
0.5336194871200979
-1.6652860134444503
0.7911158317065412
0.6900688475562359
0.4196551915635124
0.5613209056739519
3.0240108364581118
5.082059341781418
1.6529572436375146
2.768353593909174
3.206154099438198
1.5347737131720023
1.7580558115484006
0.3704687371417793
1.4890100455232769
0.4791661186390506
-1.491471469212262
-1.6807758396381227
-1.8352363218199448
-2.51805912002047
-1.377316898745212
0.21914566275247666
-1.72653698041726
1.8430174125194063
-0.33839582534295354
-0.6861858099499929
-1.0577212406806065
0.7132618317499045
-0.6560353377729009
0.26808225271215075
2.6566233485920256
-0.2815623384297308
1.170977581500147
-0.7867440899501581
-0.23332057902369482
1.9086869497385364
-0.6512321136494403
1.730938553962833
0.5366384881708196
-0.7680541281089355
1.0301613438384303
1.0393781795527293
0.4035841547766331
-1.5126515402258938
-0.514733940465761
-0.21401511304549625
0.20037083932657862
0.3121094691366845
-0.2205634085427883
-1.2832408743393506
0.4354970796807398
-0.05731429036702529
0.4350752296906368
0.8790482626779308
0.5555329064082728
0.25697172630647447
0.0489918488612249
-1.864441937773933
0.23299379221621752
-0.1160733746084247
0.5253607656985386
-1.1898221027261826
-1.5795277809888426
0.8567048374882662
0.06614842302233015
0.9377792071691917
0.1964861280037925
-0.04138044255583193
0.5520084338173901
-0.3419949294351118
0.03674140667688249
-0.4485028857820285
-0.46998031507401494
-0.5802780233838929
0.29498381407831065
-0.43345681544078796
1.1705983569905611
-0.8003861422470064
-0.46167155364602025
-0.4935316134507967
1.4522033789408906
-0.15043074991543784
1.020425217301424
-1.3388313437007129
0.2064040810606853
0.8828078151205682
0.19475279712225757
0.9879203532920967
0.9550411489982843
5.7528711256694685
6.874775156545479
4.149056131229767
4.233179826000275
2.362863149974199
2.534600635553139
0.17227458468755613
-0.05871635220082988
0.6633300224522983
-1.7830480843091565
-1.5705320335157775
-1.4179744929329616
-1.582337291701738
-0.35345861090708747
-0.3573319439166505
0.8598932041187365
-1.6475161180809297
0.41320363518218
-0.7412130249797628
-0.03980765357255157
0.5888980033749789
-1.0826741068700028
0.38406560105073734
0.03693760909817628
0.3328131391238963
0.4108417524867856
2.5601653471104755
-0.6263127132190632
-0.3461578618037774
-1.0154060576582913
-0.6683560474615953
-0.8686505497734466
1.640270984135122
1.563148212069052
-0.5865586904811314
-0.6753574573349974
0.6946706891374271
-0.33109670597615704
0.8172725147755815
0.15041495619488737
-1.6160171988940224
1.3550673653339247
1.896367126441323
-0.6445758375501425
-0.47139576603942335
0.19173311837934448
0.6244953161139627
0.8490803552411648
2.3762833099919827
-0.07114396751562764
-0.7869063564874741
-1.3843997181635121
-0.9349903493942137
-0.2854107712240772
1.8960260678963625
-0.7045470411328224
0.2660795024123457
0.20667044054629025
1.0553024868419048
2.9290287527919374
-0.7290077971091405
-0.2914004912202529
1.1291121132955444
0.9207105396155417
1.6234678034640957
1.0453323687166862
-0.39504710754364064
0.7259844185521656
1.397601078372208
0.6995497676983209
0.6724193036967334
0.9123807605448553
1.4486879065372407
1.2301228447917805
0.6564112840887945
-0.10589394011446235
0.30357364037784595
1.600204228193666
-0.907329468910134
0.5964202637276225
0.0007128773994667381
1.4071214487777735
4.996827163726901
3.6734941712765057
4.251493552782022
2.4196568441788693
1.778395730993779
1.6062320291117915
3.195025750040121
1.1085766885051007
1.6631378980115552
-0.34918943139776526
0.8749233558345194
-1.0733971396868471
-0.5959641528096982
-0.34242486181934373
-0.4278241651380167
-1.388093599722497
-0.6777567187120388
0.3079368118604428
-2.0894728194299574
0.1423239603150453
-0.7215513911462805
1.4318884581171807
-1.6871600137905252
-0.8187609509340554
0.3023999451462639
1.3459057705471371
-0.0579193427103629
-0.9271864990585197
1.760087988765134
-1.633688234380688
-2.0852545412028682
0.2779015081282593
-0.849273376072311
-1.061596836517623
0.7723336753542551
0.18955967511905367
-0.6863431865805499
-1.414616818787747
0.8950469347685515
0.47231142811075133
-0.16487245806148965
1.9967263102251405
-1.3303493821072816
-1.5342585748727933
-1.0497059524406454
-8.235350721502721e-08
0.04757760716287959
-0.03731769525017084
0.05666593458522701
-1.1631236168302426
1.687990819778558
-0.28828905867666255
0.9449188457891396
0.15388621750238463
0.3595806814729231
0.6732516400700971
0.33420757323989025
0.4185311148262725
0.9254017888157733
0.5169106710039494
1.0451028836714418
0.022311713610464634
1.2780404765644757
-0.5268518790329404
1.9906818164094289
-0.09100757692689015
-1.42250139331827
0.3744580608086878
-1.0091439288861626
1.0403281136131588
-0.7144547415736936
-0.6686990936169899
-2.0956020256043986
-0.6252507461528944
-2.6658934706491975
-1.22962502860792
0.8586552438444977
0.9986967093725458
0.5379312201083004
-0.9547306214351783
-0.03276029146885344
1.0383903242152244
3.0477573484941844
5.491056139979333
5.363006033758485
3.685667681944488
0.8973075284664894
1.692933441717473
-0.9323564842335268
0.8705085140632413
0.5276272691335457
-1.5807365320247537
-0.8309079896855187
1.4376586340341941
0.18912164625191263
-0.8572192062902361
0.3986436169110266
1.4061390226545623
0.8158023273651278
-0.4102739959231759
-0.9929786168006917
0.5688342793636669
0.1901732096192797
0.6463581974921657
0.9680342792268777
1.0516811639658652
-0.5800812528815176
1.414245578953186
0.30434882544071423
2.2990260033665497
-0.837920140762921
1.8165082465398135
0.015675988192482032
-0.6894495923621939
-0.47253732062191073
-0.28945050905050795
0.44623016757135453
0.6832016845444835
-0.6930976821337335
0.011980262319711471
1.9904893907077836
2.3116936832778876
0.2537508061213061
-0.10212705270071065
0.29656094212088524
0.527624944030185
-0.8461833396581997
-0.22677201867816812
-1.7492219271883476
0.24867205278032378
0.48942862737536647
-0.5616506628019224
1.5391074996210732
-1.392141911687116
-1.486221366247129
0.005628760026370527
1.198278545931425
1.8734001713498616
-0.5997493009106463
0.9266462224082516
-0.002925108098732747
0.08044591866549336
1.1809926703373073
0.37177433376616614
-1.3751311910539445
1.4642296821388567
1.3716534140553445
-0.5246202283794172
0.2996120393541862
0.7133703127043998
0.5454662201778686
-0.25804829833837273
-1.0404063255911076
-0.07148552473713123
0.7856829022978131
0.39054414220576394
-0.8501141063120375
0.8617520375762421
-2.8046806935140407
1.0622454790607503
-1.89794340088816
-0.2996346165323981
-1.3219543089003631
-0.298679568234262
4.542348536456938
3.1135356020057396
3.852047357289524
3.4982368068934426
1.2483336460443692
0.9364122828496566
-0.3259649963918911
1.6752252858582999
0.24269230816874293
-1.8650503167481733
-1.1091899902432982
1.0805826899254884
0.4309644080507551
-0.7970523890763866
-0.7036832595568016
-0.7117688513748535
1.5332449412612243
0.005492571947537616
-0.04400612174054161
0.5064349086484637
-0.04062462503557915
-0.24125928065808738
0.02202841374584366
-0.557041910949717
-0.21130056326057306
0.8139203104359318
0.22758497855793303
0.6486173649003757
-0.21727305179279618
0.3225773402941292
-1.8389821433323938
1.0880513543176846
0.2528756753998436
1.220748957396388
-3.2852691247664314
2.3146207231125304
-0.15289605884355167
1.1339696549870795
-1.2289564587410262
0.2499686354409395
-1.03187473361531
-0.5134900507775256
2.0545698308305393
-0.0717266815984293
0.29106521219041437
0.6853104434501622
0.6491771024766113
-0.056705564351489296
0.5863738496792523
2.3866192114770404
-0.06776064100668214
0.3742843703759879
1.2509481211144398
1.2596536687480115
1.0229387356492463
0.7912641321168951
-1.305962834724573
1.791011812646628
-1.431378032231141
0.2838994528513603
-0.9184540779204922
0.10984878389661264
0.5517957651212831
0.36115651820865957
0.45514258302286165
1.7545466935548741
0.6777572775038034
-0.23669440035821637
0.8641521032987611
1.3189239862127382
-1.5993532893557267
0.7793303777616232
0.559135352422556
-0.3456090766144817
1.5589170779352817
-0.23315749031046493
0.25505822918650284
0.054709926531013336
0.037585665590968646
-1.0339854557302595
-1.4639380573830383
2.885225461499424
2.6011053617697852
2.621207699310197
1.2603164310779005
2.8526324734831374
-0.4742891447407719
2.9441912436385054
2.5975279752192755
0.47001896059532106
3.694852976259944
0.663756727884617
-1.1078061526886371
-3.239311820722098
1.9459548679508227
-1.951188061672327
-2.4467038424973704
0.35205119231355836
1.9805371329913255
0.682338161379191
-0.5341455753448797
0.5303517062237186
0.8052169200092685
0.7607738766156306
0.5329680986272818
0.11490566353168512
-0.014005657014380987
-0.5428571941367923
-0.27860627369962165
-1.265652665137365
-0.3510812855905503
-1.1754206497724864
-0.9807976355616081
0.4307568577412062
1.3518432869708745
0.7161923718444319
-1.2183026865781066
-1.1481019155311998
1.0085820782148116
-0.7196570312687525
-0.3129541946812288
0.42562653157320907
-1.079082003269568
0.28568575746091285
-1.1219959538776725
-0.5946225655987882
0.6963983847564836
-1.5866004216776437
0.6989413807940321
-0.10603811977686908
1.0192412611582606
0.5379404171806037
1.3385455028681412
0.41213254439130786
-0.1526094428908495
0.4329057182908135
0.04690076189232684
0.1927303601838714
0.14905144506503065
-0.6077770316180648
-0.6192316308713687
-1.3530430158967883
2.0062048042465555
-1.1359685606526106
-0.6495239090494348
-0.4905310626020737
0.9785296126268153
-0.19223599282135173
1.6211494944359792
-0.760386766753798
-0.024147905456446572
-0.8208743510615979
2.188057796764781
-1.0432926131380746
0.3312838931594197
0.7848007297266103
0.9147224335058121
-0.024984795102306445
0.0656423604768675
0.017905190434622763
-0.424053419529949
0.5042567993689606
2.1067868851642078
0.9126805557505441
2.562378479359719
3.6646262086987162
6.146506018294212
3.0519719099549363
2.745255440552632
3.0217211386435197
0.8418020980934312
1.682481320424512
2.834805460747398
-1.0590296430457635
-1.2078698556367673
-1.2616004621991608
-2.0238415131346663
-1.2590152019813536
-2.0338540521138166
-0.9761061313755413
-1.608849003712727
-0.5966300572738612
-2.0650725223521587
0.3655411720716159
0.6422734700958981
-1.663922385131358
0.4993546501496838
1.1604045187573597
-1.5204078558302099
1.5876536709416647
0.3749163924345111
-0.6312053894683577
0.06568222427422507
0.7196433316038694
-0.24628809475529798
0.5804569566790176
-0.9525967581290086
0.7049562792700537
-1.400775609085706
-0.23575670104097463
-0.8818338701214067
-0.7372436001919198
0.8382853137802343
1.1729710132778364
0.5470265027714606
-1.0976510077046828
-0.4911221564729136
0.9943148539367362
0.3174933804550338
2.541020871270259
0.4769375604818189
-0.17011040362189533
-0.21250379235023664
-0.22564640548505494
-0.284704963346197
0.8812203664400389
1.0882220131354823
-0.6945959876012555
-1.0686524227738212
-1.7242023436217113
0.10418748190436716
-1.1772727754251455
-2.161212284498695
0.35683025917708966
2.3695724824123126
-0.2121021382326123
1.3186397683435056
0.004080393506408653
0.3714307574837479
0.6908184020365578
-0.1588625304368498
0.31332059734987683
0.13730790078300145
-0.7616018756071855
0.9890163356643288
-0.3437830801286338
-0.80697327829993
0.06352935849228053
-0.7561647837372895
0.2736114921936868
0.08175374485552833
1.5387471914191342
0.6111174783999314
0.20353496901036805
1.0654388657023093
2.518983370738228
4.466274426936767
3.5574951106150166
2.2757125581706714
2.5572211633992366
0.8858267663876102
0.7741744207340093
1.1534212927616478
1.3077282790793405
1.927824073343676
-0.2360017964042816
0.25282619900926007
-0.6026268250684479
-2.445533406888827
-1.2562701096938356
-0.31959726175700953
-1.7976109570495158
0.2754594093775375
0.8954256584021959
1.1017451661775612
-0.1649734152572631
1.2214989296587635
-0.12187825035874711
-0.2595995968011873
-0.3384428806283067
-0.5218268539779978
-0.23085599681801333
0.06196867876992175
0.3252128015884419
0.139684202226477
0.46799813804283774
0.8237680135302248
1.0857912654661463
-1.3844941142505305
-2.471835184263054
0.9734547238854694
-1.5426360760818427
-0.008172847688861257
-0.9904850818960323
-2.017064992948953
0.8043217303083383
0.7854890472297243
-0.5506830100976849
-2.6263133594286465
-0.561843127569494
0.6659838430645004
-1.2722965718544257
0.38572933650703867
0.02160302133608008
0.7571258443079677
-0.047282246393961114
-0.8563803451819421
1.165873895270698
-0.5704905705086345
-0.3445248712743245
-1.06586371509104
-0.3602514543217683
-1.0172186716936948
-0.2911694074003648
1.8643606645173119
-1.4829035668212938
-1.347399949469859
1.7041950754576356
-0.20494741303760244
-0.5183804483282508
1.163352778267353
-0.6547485949287448
1.9983366461413654
0.8797062824173745
-0.6783984543037828
2.188017940929652
-0.5772141584881053
0.9120192654994479
0.21052091031662457
1.1821892228435122
1.5953111287890833
0.26827599371648125
-0.9932932934281702
0.25501091227169087
-0.7818163513462238
1.9448718331103125
-0.21658122940476557
1.2618696712510535
4.251989497793664
2.690223315832887
3.4462839792950097
5.4373431171677655
0.3114307328480828
0.061419973665839796
1.6037147133381386
2.5507837133350004
1.7608778576144963
0.4943508921505967
-1.3455247952140976
-1.340063282544084
1.1303258271193828
-0.4019223929990515
-0.44976521559561466
1.0315782989898288
0.2909756407164571
0.5592784631039365
1.6621047738888812
-0.7208092765313281
1.1091532802179773
-0.19961587679216675
0.5320488404187739
1.7069183695632568
0.5621948933160911
0.43766469819477943
0.7901941062730107
-0.22354355071607118
-0.28948068044222885
-1.015630686837662
-2.331565671522382
2.147710427965672
-0.931155771441444
-0.40482410996495943
-0.4059156851067999
0.15793105205984234
0.709464439166559
0.8260408655041361
-0.7552576602676391
-0.4142892620568565
0.3174550276233031
-0.2852235341562872
1.5200972219966293
0.5076128949825542
0.4308426449381286
0.7155218532667648
1.0903362174274125
0.22891945232626287
-1.216902126872053
0.6259182074098771
-0.6307660103940468
-0.31527291573889155
0.5219813905290752
1.183447568760751
0.0030859421713266104
0.4636579927346062
1.8284067600398206
0.26776755546092706
2.3561360458594907
0.6881214807848093
-1.9330436861124118
0.5701621423445885
0.15346136689524117
1.2731190119223386
0.9155262109640959
-0.33152809285981655
-0.8885830456545482
-0.027061212795310846
-1.143440866859425
-0.6570784862403869
0.38052835102244853
1.8028955958985495
0.19703886028889922
-1.5201069574464203
0.37945751287272306
1.4305103013849028
-0.6482861490878928
-0.05432839400158131
0.10213441423860527
-1.087353431630455
0.4684056084129282
1.8254588775877467
4.70131598961073
3.846653274711512
3.710131763095192
4.933783879615982
0.6809794500360733
2.5970889339086383
0.017701044827247325
1.6073247218665405
1.7134335048596834
-2.0660635290416556
-2.771363386870592
-2.458139636631678
0.17812116224594932
-1.4599731665900477
1.6694665815335572
-1.3506370747713532
-0.6498388059232381
0.4939296465301249
1.1414365818453525
2.350905709991359
1.474044339675505
1.1151999315944003
0.7251467985492177
1.190525636393707
-0.4369361844108339
-0.689360911314797
-0.3162910626336606
-0.3927107347725562
-0.4597661127275158
0.5348990024418658
0.7557141511658764
-0.08808492335460237
1.1928159526190363
-1.2999660113499154
-0.12577234831753836
-0.3575575353058679
-1.7071401805303361
0.04455041116518785
-0.4464541852629647
1.5373090842465345
0.6174197038953496
-0.9660386049389692
1.7819550724386963
1.5534490437282866
0.5926528067281803
-0.1964394278624574
-1.3519272816928498
-0.3935419124599172
1.318600489710313
1.9957014275628162
1.1121253403235674
-0.578784436415519
-0.7732375398164105
0.11075810285489905
-1.7039561690206262
0.6469695716422418
-0.17852541460804988
-0.3078305298766616
-1.5124238918351232
0.638629879271795
-0.4568577082952174
-1.2794428114132452
-2.9618217235661835
-0.19843014112430127
1.4443097728956862
1.9101651966831985
-0.45507966321002985
-0.36338002385688906
0.7818487909919537
-0.9877019430063827
0.03909407348134103
0.7268426492141971
1.0927045025316833
-0.4961841682909503
-0.3040195311627415
-0.8922900291694636
-0.955545233192791
-0.38078790929182416
0.11185834238958714
0.9527690559041049
-0.4293250940370966
3.1875089118205793
4.820472917095568
5.074585669978516
4.187130832541095
2.1757282444103936
1.8224438157123948
1.5552731168694882
0.7618965499943362
1.3259184152561079
1.9229058929972767
-1.8181931126492241
-1.1310554067805536
0.5382284276554351
-1.5048896525853608
0.16075524427308135
-1.628992376702359
0.2111621752268746
-0.43062509587368303
-1.9460836745260728
0.9988143778214202
-1.1362883200267493
-0.8737101501471459
0.3381491908301249
1.476783137629822
-1.0954891078044444
0.2987538060127291
0.7668212694141616
0.6160291270506084
0.06479984871086124
-0.40344273310170764
-0.8439805776613387
0.30430841661747865
-1.226884047887526
-2.6137373962735135
0.2764082936124242
0.6510498571626826
-2.258176993230103
-0.7636186189360963
0.6548853572077803
2.1445123493049536
0.41165315528047025
-0.47907238492207427
-0.1767113575483403
1.2886470425117973
-0.4269524058282581
-0.6333352239650762
-0.39902818565001585
-1.01873134545741
0.10739238874142885
1.5951745455459494
0.2610055163997701
-0.3725831294454841
-0.23877154172588372
-1.6924538678505259
0.9185856113300526
-0.49781184345661145
-0.3004547473107888
3.4127734079836705
0.11866706327278831
-0.6333706578865557
-0.5898143462121588
1.3036028405553988
0.053848621098056215
-1.505607299190424
0.9300992302846068
-0.9368294789633331
2.0677159399688376
1.340734754017796
-0.5193281950577426
1.3858571959154222
0.2236376465698148
0.8345221646558938
0.2630833867509017
-0.5275402286005045
-0.7220541733032217
0.9081338637383992
-0.0070169458397556506
-0.281636709730756
-0.9036365641377503
0.22944693291295093
2.223085730885789
-0.48822919315032365
1.9651219619077431
5.869233704829623
4.422372618207185
4.744544179771706
3.2278717760901716
1.631204721665992
0.9708524652236626
2.188227743830246
2.3889513344205544
3.8136134615573742
-0.245767650337853
-0.39646652925130205
-0.5607223120165035
-1.0905590193437562
-0.127921861104821
-1.0509197796311358
-0.1602260424056381
0.6172702263370734
-1.8668597006916174
0.6389299917030367
1.3012096137982256
-0.5968053573379045
-2.1226555273756316
-0.657657154683224
1.6183040238187762
-0.2023813992989555
-1.0658331959105651
-0.2512470460161257
0.9195017330493891
0.5124422032067525
-0.39022923246430113
-0.2964752664396814
-0.39761837768747565
-1.075976037539942
1.4722063812038688
-0.4852148921003563
1.0186473980727206
1.7081228039169185
1.158189569872048
-0.2444854214408898
0.40463000009031436
-0.07272136395094746
-0.9485782827083955
0.5285795963028246
-1.5430693555589683
1.0847821677900793
-0.6420864227992765
0.4731371651905209
0.18779636685671847
-0.5861027407920323
0.6313785299246326
-0.5489264956013072
0.7599115359202517
-1.477986071591914
-0.01351737628574956
2.080641062029614
-0.955573851294006
-0.7173381216509573
0.29426007428964773
0.1458031172620138
0.40275567079356445
0.5489180197995616
0.6668983451601237
0.9251813085907175
-0.0708166615898913
0.11866609739184422
0.410646326381025
1.506890343161828
-0.10653062378175442
-1.3162330053167857
0.9461209195719957
-0.010611078791832582
-1.818132092319227
0.9249240388048969
-0.6231600401292988
-0.10081719318552916
-0.029736860865965997
0.10034925794603637
0.6194954963536506
-0.4048206381424073
0.9015437207148369
-0.6469057353303651
2.433764261223624
4.471338779647978
3.1865616837385966
5.135734892384727
3.387840497818966
2.3479851067479416
1.7757257565322675
3.3546637050867725
1.02751215505549
0.9938488110866268
-0.3044393412571887
-0.9076716854688169
0.35758534816121934
-2.343749732592653
-1.5144268140862212
-1.7815346571529724
-0.032924746851077824
1.105148931384998
-0.8024577106709829
-1.097725858682182
0.10835073344781618
0.9831730056175262
-0.30882487849803764
-0.05451946394794838
0.7326126412924018
0.6750043912694034
0.1629772404707256
1.1708865544195848
-2.627154082219657
0.5614138939446712
-0.9298941617433503
-1.6164162807108504
0.2535125624071208
1.48543973739579
0.046351236823677866
0.9274909863969467
1.5514487508510848
1.1181692326518433
1.7325130727122533
0.13294172485556977
0.21857890671295488
-1.5780705437020257
-0.29062562807388503
-0.7947861403834222
1.896231439111388
-0.6584843500475133
0.216919820775278
0.8147946104774055
-0.3042779480148937
1.4845550250314705
-0.4721843831289646
0.2663854072266132
-0.14984889443670657
-1.1048910174555262
-0.44468419652667573
-0.18979453704738852
-0.3243410652391235
-0.393338247378782
-1.439195616686415
-0.10654848737612117
-1.4764496687096156
0.6271562273951556
0.1362324557591661
-1.4087570718097944
-0.013211794413732103
-0.7900348940927238
0.45412021963188176
1.3085373896247343
-1.7472205812892958
0.06501438798903764
-0.04543819817759913
0.8169872422681553
-0.0001345983738726686
-0.5314942476046989
-0.35234941305622247
-0.8899851957287189
0.9340055162645939
0.08095170429159043
1.900266347972303
0.01350062329371645
-0.630362610046767
-1.3919974635427914
0.16023620380058978
3.1950419369444267
4.891451502180515
4.876001885245833
2.9509854668132958
1.8640085050110706
0.3828243104555548
0.5986962634669235
2.8269635772396415
1.6840926721822065
-0.8052520688749991
-1.0711319543733058
-2.432709022108897
-1.1917105890212225
-0.6740722156076779
-1.4314072728622453
-0.8082351583799425
-0.49457430247762696
-0.7387766479383706
-1.3041438646443768
-0.024429229976382943
0.38871456930767545
-1.2879855990240303
1.4238068939207162
-0.45467956268556436
0.08705732504635716
0.38195952414292417
0.15252151926490065
1.0539568488094142
0.4453535075043302
-0.47796553286373766
0.42545030810087775
-1.3675808703701602
0.30468137674987467
-0.25251026354548306
0.01079830681832536
-0.0029965599425896827
-1.6100687425497315
-0.5437512109377021
-0.07090792030108947
-0.0986741128344496
-1.2639910078405434
0.9383528911432981
-0.6777742648271878
1.1829405911332167
0.5379343469230544
-0.6528354922584588
2.1875027799020144
-1.2132665283492816
0.9633375352387802
0.9910120153771544
-0.7382818223693345
1.5186601980305483
-0.37674585243985736
0.14857806397692905
0.39661571585309163
-0.23383041478301564
0.8375046787748179
0.7252230965995076
-1.7508422328835105
1.1696824191848278
-1.790609738585493
0.8685997799796004
1.2953711587998735
-1.0565894633649324
-0.22710412319585188
-0.9006273555771434
-0.30690389571587
-0.1317172873080285
0.7768363878826533
1.278574045023758
1.6461572301221112
-0.45141433401521575
-0.27970672475727326
-1.5856795291156205
-1.0590125969301067
1.0143142293253808
1.315664513376595
-1.4312287970535587
-0.47553631949907044
-0.560454956444289
0.6406635306345578
1.238858479160031
4.518987459372734
4.468493413674322
4.983001547025516
4.972818955612344
1.018399875924746
1.098150243367861
1.018907587639974
1.1411203614110923
1.0707223359562825
-0.9410813318688434
0.8988533439982815
-0.34514252394290673
-1.0731719136198652
-0.006782541183579696
-1.233115104006045
0.291954497501664
-0.27522052091620985
-1.1288259495817226
-0.37969865375709044
-1.1819573533490948
-1.1958611983378198
-1.2880696880398257
0.07295392786073869
1.6656845231942254
2.346273920160309
0.7390243320763173
0.4226927923315529
-1.8438252187803275
-0.2801191761360099
-1.089844702802289
-0.6323640015608603
-0.14109451051454325
-0.6274271497169505
-2.0023271310740474
0.5655749639571571
-0.9453092115995058
-0.028394466989726308
2.286549402233985
-0.9340456230043349
-2.619894294633072
-0.48694364181096556
1.3070911941960641
1.827975027413802
-1.4629993063513136
0.7069918870381455
-0.646171619478985
-0.12484481713303308
2.8081041021644872
-1.4713788078389625
0.5999099706685682
0.30070309810789764
1.0436840576193989
0.07134752541735907
0.43229753001890137
-0.13392394185417245
0.2838502431708468
-0.37072504156946734
0.32497351629007776
-0.34713409808429496
0.24704039190289576
0.09442444843477557
1.0441134129285625
-0.09952133446250047
-2.0650860711235954
0.8996310839614838
-0.5335348928258966
-0.6278295567357647
-0.5147941985173704
1.1919791005342666
-1.960569492542973
3.2767765128408657
0.8955713701814899
0.011337826960082287
-0.2013995373817409
0.27989754511623455
0.5545438290073834
0.6528943875977872
0.8153504877314892
-0.05341068876396285
-0.41467081851311005
-0.1512534792831476
0.9315300047817743
6.02125896088324
5.361490739490139
1.7403451214677823
5.325531566193985
1.0801718262791127
0.8603573057578999
0.26564365036453474
1.9459029598336803
1.8236370296270166
-0.9822042722988702
0.08952743359858646
-1.1718550426433694
-1.8638673429750092
-0.8889279603313837
0.5393363716573037
0.5987200710171894
-0.10865063187559676
0.2431443869653077
0.14256747268967845
-0.46247375909520094
0.48908724275473814
0.9883443748332627
1.0028740062936004
1.254775200524542
0.7363625293371231
0.15684940820454082
1.4674844912310894
-0.3100900735910982
-0.8581278335860187
0.003492836765312507
-0.5755551293001815
-0.9061960930622462
-0.2284992712890359
-0.9522108754234939
-0.7040483755522444
-1.8675493186047933
0.06977062812494314
0.3023019323044934
-0.6940537434304562
0.6675260584752264
0.8430302311523846
-1.5845366504118392
-0.8138995417493702
-0.7552345280086765
-0.5595759469424709
0.616523610862213
-0.22755451250245823
-0.12323716125016601
-2.0838905327639186
0.9515263983309004
-1.1035665642511048
-0.08384545276759645
0.31819067841318815
1.2197368490010907
-1.468152061989931
-3.0475517517627413
0.43660177713405113
1.949600189467797
1.2344308316399861
0.3658966542351043
-0.43791244354888165
0.5731439915122528
-1.0025737235421308
0.4617258501599262
0.6578082265518194
0.9469158073784605
2.5771271237789235
0.38330657582140565
-0.6380485265064093
-0.09027615610872171
-1.7852518194673435
-0.7713219638339492
-0.21664588954254066
-0.2412293767337082
0.32493702062536484
-1.1766593654131734
0.9926359348641045
-0.035523358888241936
-0.37855497300862967
-0.503073059942774
0.11690469001246909
2.020812228560334
3.19775461330087
3.1288726322193394
3.6673722946299545
2.7476658202220876
0.19334422997281425
0.6237196373942555
1.9626658485215722
1.19170173066043
1.2281754833919067
-0.0014599113769871996
-0.8837767068108063
-0.5130178990670037
-0.5824961210831966
-0.48169576531247005
-1.0623292229719214
-3.068877199144692
-1.0037708691235026
0.780610201294292
0.3957998006532093
0.949881326270668
1.2509365922744655
-0.021633870709578173
0.2021363527010651
-0.5700722576739218
-0.43183601885075185
0.39991196243521066
1.4614785370854553
-0.01862217448405125
-0.5597208859256884
0.044459410288208316
0.305491015394517
-1.8392690109156131
-2.079354335641678
-0.5046266214392754
-1.2302529198110819
-0.4616087566847203
0.49744601296646884
-0.2794293517739485
1.2433794811957841
-0.009330513781744987
0.5113815122827116
0.7934263148894034
-1.0238209642706808
0.87653598124039
-0.003107208558664823
0.5258115834925194
-0.9393008558359632
-1.357227384561596
0.7091951062591216
0.6027715583406014
-0.8790810744449684
-0.7712884387862973
0.8635081116766086
-1.142968991676348
1.5075560757730297
-0.805694043845034
0.9318244595386355
-0.27071443388571415
0.4230164497957063
-0.41882078375867526
-0.08243515691475092
0.452639524675783
-0.951393863601284
0.6237293471753121
-0.35908532134230964
-0.2541355298011373
-0.9782991766661575
-2.7480288648704208
-0.2155147251608517
2.418776361111003
0.7589345527506483
-0.1374378522205589
-0.20524500313920863
-0.16222859055632038
0.3153201950704109
-1.0389055811635566
1.237871730286329
0.45386041930517357
0.3522747164214419
0.23672732973041358
-0.006043141200649672
2.3082998073239382
4.529954072761891
3.460775931896387
3.4248043255027287
4.047741924795088
1.7861863732639833
-1.0007519693782476
-1.2237970829161031
1.1740988314774996
0.7362516731701364
-0.39124508920242773
0.019763020608523113
-0.7826570540328617
1.2590559761310645
-2.030686228928388
-1.406110816605469
-0.41313423284901685
-2.0615284384751935
-0.5420443918619695
1.2587280284990765
0.06188944287014739
0.39081168333603244
-0.7434033954090468
-0.3666030279295659
-0.3312673482673279
-0.3798364797361487
1.2414968114033702
0.3064652018030346
-0.9785492484263887
0.043520240100336366
0.4237308860869325
1.2742187791016664
1.5330756258090683
-1.1135517899337193
-1.0503536484314668
-1.016512512453654
-0.4006642321975572
0.34918320905674466
0.6289886326223295
-0.07992323320410281
-0.3865065005271558
0.188129575642423
-1.0700692370215377
2.2363748804018004
-1.975503137687282
0.16630507889924329
2.046703875857556
0.01835464590121478
-0.15848806076944094
-0.19971108595825385
0.08454805923220227
1.341726889013942
-2.4054304383574294
1.6455771577548768
-1.4800050293989833
-0.013728386909978851
-0.549637743173087
0.4169510920441636
-1.5693656016932123
0.1140891078345444
1.9308238805351958
-1.4291421199144803
0.2338006317649321
-0.8612365970506489
0.24998711173944546
0.25053051555503203
-0.64417919996144
0.6607997216516661
1.6959906295100504
-0.20179398421147376
0.7626648275540246
-0.943761976346511
-0.999960012852305
0.4391524991363017
1.7037466340833125
0.2796510610886425
-0.2561321921886036
0.20148324670716042
-1.3655761083095057
0.672607815652098
1.2314432043524117
-0.26782672306544975
1.2347186991278032
3.252030628538706
2.473433268957621
2.7672468619802006
5.432663242412835
0.7969504735142472
0.291118917656906
0.20087755916671235
1.5473392363874428
0.8365408842329555
-0.8975866142347899
0.9919664645533085
0.9864920684808671
-0.8570238122871737
-2.2609502811267745
0.7268768632892565
-1.0245978572253007
0.3913534076151053
-2.4894257880118333
0.6706625732751355
-1.2026578610049747
1.08824829015981
-0.19219589983908766
-0.8288797809500466
-0.4235656065321087
1.1062701366220125
0.21568883652752763
0.6493506967995011
1.9604200975207215
-1.7048658226441753
1.67949113349681
-0.17210458430413944
-1.1660408660401225
-1.1278259383730906
-0.5415452185858466
0.8577354002662919
-0.33737441862932593
1.430660791769415
-1.4142666295836896
0.18482211034677998
-1.0088667264665747
0.17984123879320343
0.7936950027719474
0.389748230761338
-2.6542167938142067
0.022505987597313565
0.2935783991852218
0.35546677169983154
1.1572347192644623
-1.1179277042880227
0.6759307947051366
1.1868259400193422
-1.9696848834607557
0.3935180301502034
-0.4799704410315347
0.017793661008339345
0.00478567279330494
-0.45585971537525666
-1.0728273423420152
-0.0009617614072914837
-0.9556586803121875
-0.8766692985647124
0.7462652957759043
-1.0137158881000583
0.6065115084927201
0.36075773886895873
-1.1872550962858512
-0.5121325899626129
0.9595126327542938
-1.3280983154462798
-0.5574181521221028
0.7004345945136295
0.793138340088349
-0.6963428505167528
-0.6329688793296231
1.4218895516487973
1.2557661879044828
0.9836912811918335
-0.11735545895324077
-1.1753750037985895
-0.5095428905234849
0.3109936651087719
1.3269267027070155
5.22400219556217
4.6094180225500745
2.8087019994804323
4.771230423504807
-0.3776980369759754
0.32192439708108456
0.7581651500479498
2.6128135020963996
3.910541810583429
-0.19026686198394388
-0.8967740442452518
-0.197614060682135
0.22104516586814055
-0.9178862064113713
1.2666745857548698
-0.02826730419495843
-0.6798011210582762
-0.01340293956545504
-0.497149527612811
0.7618665003394314
-0.4410797204081076
-0.3187432495175549
-0.8512113176080132
0.6865597335903111
0.7441494891880285
0.7374789210933185
1.9938623922687058
0.022164072079255494
0.9041889759060253
-1.0834534724359988
-0.10505319936422525
0.6632051100930659
0.7271980144045072
-0.5179652337185056
-0.10632505850559695
-1.500996107815149
-0.5461997330818001
0.8403614717206545
0.46989515422241307
0.2852706121151079
0.2569506194916768
0.24944387924933334
-0.4540346038149852
0.6819972620782349
0.41649638331101535
0.2793841768449292
-0.44310826361931277
-2.1194165786341204
1.6659421910588317
-0.26141698360525556
-0.7997267787289497
0.6851570497153288
-0.19175133250368448
0.8767886499705174
0.8449335119795038
0.46614062315301774
-1.4782604826434806
0.8443080855055085
0.3840657758436744
-0.31929133399356524
0.03109186238904632
-1.9620629910934837
0.6843972568206843
-1.0560922957027057
-1.5061293607476496
-1.1379725934942861
0.9812757911615827
-0.40153997940203157
1.3035295971143845
-0.6067907090936924
-1.6068997125164695
-1.1280918298694642
1.2845642243095492
-0.2636651471414685
-0.8678465268705198
0.4531335027257298
0.40621706069273117
1.1752013070089287
1.5888907282193914
-0.2980170049268071
-1.4677659394696814
1.666415715030427
4.454186706926156
3.1671661691967303
3.1691364111604305
4.771410715739592
1.2870425471000606
1.5975555036062774
0.6174861095010366
0.8640454670473736
0.164927293280261
0.2169839932470869
0.4332735586389363
-1.8818850552482784
-1.2601203162135495
-1.8091477938005522
-1.2477267785393267
-0.5414596787688284
-1.4587017656316443
-1.6350304907631834
-1.3829967554903928
0.5295264827809966
0.26253295413069844
-0.36142963055220656
0.21939392344482372
-0.42598947954984584
-0.2497002329679787
1.7801212021264532
1.1574197693296633
-1.141111555138861
0.8885820804325858
0.8239284277425015
-0.7989849611894475
0.7657005639339057
1.7794963253366394
-0.8610890868244627
-0.746393944097171
0.8246415326961866
0.34331097029427904
0.9431711354658232
-0.02312149053684398
0.35316422206890397
-1.094010424377443
1.0242535866639206
1.3315675558225482
0.05244746165179684
0.0029243068158980937
-1.4293093983846141
0.5326289427338751
0.6316186181082074
0.35832946997994314
1.1115636613343731
-0.4047080385690567
0.7729567716975527
-1.1882488051404743
-0.14649644232728626
-0.29602331669336035
0.17413301754933352
-0.41196682180737026
0.008347322261433615
0.7575748443897709
-0.28887154339118004
-1.4337409597703228
1.6188816643388126
1.5499952824301768
-1.105578998513961
0.3375205179190226
-0.44427857997654974
0.1622055936708769
0.5548371250799822
-0.33772903737103455
-1.0516622966485305
-0.696504415650025
-1.095586376301066
-0.6619051553228671
-0.2289007898257127
-0.7192612789484072
0.9912141511454527
1.7069518797787546
-0.48448540071225316
0.21388895802492214
0.5762644015451515
0.6097990614642852
1.3920030054979051
5.89138537505999
5.240345650084741
3.8552634725906576
5.626213491394845
2.011398521905914
0.12093065677387502
0.45828121565545993
1.4146921035300877
0.4179502075687601
0.1795050980035958
1.6277656361069013
-1.7371123463748253
-1.9942790139630306
-0.32077815080139904
0.026319896308397414
-1.000294843359085
0.8196967567038875
-1.9458562623137952
0.018374606573804186
-0.8682356253949409
1.5617006834334952
1.9389031688696958
-1.0618147673532874
-0.5047565092422741
1.1417889284445253
-0.13679257643759613
0.10251401086873678
0.17093080731672117
-1.47661405000498
0.1549350203414352
-0.5046006367065045
-0.780905761267003
1.7101957623400676
-1.1768074242181439
0.7972483176614418
-0.3444905551454563
-0.3894792558296834
1.0417272717238903
0.3343795087174156
