1.4255421910954922
2.7279241098759117
4.1832386785162585
2.8003164164284025
2.6753506052998777
-0.41840210810913386
1.9733950850728688
0.38820209084977975
-0.37254311994222483
0.5701186561049967
-0.2585546162023251
-0.7029972448141241
-0.5686311842757439
-1.0155526726352404
-2.1075995683284763
0.18917002759584584
-2.4494333282553127
-0.6463761818073674
0.004498166711255663
-0.9557565078949549
0.14234527953721013
0.08267737756450988
0.296178286767351
0.9365930670679184
-0.663784577347071
1.0507650864662745
1.8286059215970156
0.42978722987313467
-0.7034285975194917
2.2806247794929697
-0.01774610618955781
0.3723558734127326
0.4117673686355917
0.7745092309032691
-0.7705433288268116
0.06387522824090705
1.2122335322871782
-0.6537069906212596
-0.2588637705479612
-0.06528437530570175
-1.1034407870574747
-0.967132399282873
-0.7478838592801431
0.29121374382371656
1.1439491307568503
1.49529017223501
-0.13825892055108754
0.80414919023859
0.40757838172963723
-2.275740948942033
-1.0793871176321723
0.8206139873603713
0.7311261516096678
0.9052293880629125
0.04342538316138744
-2.0540843003538227
-0.7868711673615614
-1.2265787595111948
1.0724219777148851
-0.3459008424206596
1.9050047070911424
1.511360635167699
1.5089939228494675
-0.9237883183751228
0.10899700856132
-0.3398467027953077
0.36662473396225453
-0.843925174437609
1.3766962817665829
-0.7794268978852471
-1.8258730502145826
3.244768708265146
4.208205595447989
2.639345722882645
3.368771413759507
3.3232096088278253
0.6177878969563712
1.0596847486788066
1.4514820549710945
0.6108889186997628
0.10618008742620244
0.8874795086438785
-2.810217047196459
-1.0462527674463504
-1.3245947579435946
0.5800127643842694
-1.3338034341843812
-1.6755517622479303
0.2688686919952455
-1.5960655090674174
-0.6456075767750583
2.5673188032691465
0.8457487721877844
-0.3186355830308972
0.06596334702557183
1.0091501774539764
0.4596784974657172
0.002128327697287505
0.26737092992356437
-1.456932357017803
-1.4728139711798716
-0.24515161490318377
-0.8332642437957645
1.0247995574623778
-0.13899927274367213
-0.8727423129747125
0.21914805963635445
-0.22101600725938067
2.1958912517224816
0.8484940999515331
-1.584126677564555
1.6459184479494762
-0.6770882088005399
-1.038732296650374
2.1300276230854926
0.14933903321570768
0.8575772148555566
0.8072261577393924
-0.45876588205262575
-0.37880025501220344
-0.5715537623346412
1.3723031787831759
0.22125329399113833
0.9613463498362744
0.041455482746951225
-1.3231516435003834
-1.6480890118657818
0.9630306493716222
1.55676623657731
-0.9882900492877603
0.7681055794641078
-1.5341884366952143
-0.4030090407839959
0.5027744183864116
-1.6325880228404215
-0.30700271732223444
-0.9574976452603209
1.1474831812440733
-0.2635053726598444
1.5367048945828687
0.06219452366116368
-1.258565611955065
0.07353415125765617
1.6413507682061046
4.258500257218791
6.063311030753634
4.065837799210706
2.031769681252834
1.4825808657028787
0.3740289001818797
1.5750158113197659
0.330814716711335
-1.2634168313642258
-0.5084973279718775
-0.6285474139964233
0.49980018110614305
-1.1631181503075059
0.06136224490799841
0.4113043032134519
-0.05093687708661535
1.4873838575604017
0.9765816902155775
0.95685167045932
-0.18652725796586977
0.15183636095148098
0.4206538941818463
-0.0916283497220655
0.10565501129218324
-2.154691659559695
0.8551072499945364
1.1306497190290619
-1.1011644090364088
0.6661687587624373
-0.5588694677014976
-0.35850536591975746
0.8923877084531804
-1.0644598448285125
-1.0402079497228698
1.6550397461899888
-0.256776085782144
1.3066953966672268
-1.4451848464389425
-1.458755977207165
-0.7644556678490299
-0.3294391703697508
-1.4632277153586828
0.4743579689304297
0.08531967273204605
-0.975007923210292
-0.9189690172840619
-0.38051607338871485
-1.097468340346305
-3.1624485162085008
0.03387645481024597
-0.24848102368074415
-0.34607862913450027
-0.8737523351842112
0.311356022393774
1.8855271195306211
-1.06981870328066
1.4295040790973477
0.6730825660690032
-0.1898656459941173
-0.5148582182204187
-0.06549559208904246
1.0511269307028193
-1.247919114815877
-0.3593016986377099
1.5119579061263064
1.2069415512756216
-1.1178920744917202
0.14830417700288356
0.8298135186476223
2.5664698861613613
5.36781682402248
4.818342094706605
4.983868306985508
4.890243589387777
2.622466327334285
0.6737748846763233
1.4735627389497405
0.16003739592024266
-0.2842295043162015
-0.22959881141663732
-0.9770984647826648
-0.45521027104038525
1.3622051065451677
0.9095004129794974
1.5278118343091855
0.9443429314633833
1.7687202568944096
-0.330027570805391
-1.3978826069667531
-0.9379151208031513
1.664086201525732
-0.30042599730558195
-0.06269399544646834
-0.3879549930476682
-0.3924793159069693
0.3927197810545134
-0.8024527221420126
0.0551476252728636
1.3653343166043248
-2.302938210547543
-1.943893486855785
0.7021734681863111
1.2593973562536058
-0.6364728918380373
-2.1809256403079993
1.4283748354570733
-0.9707730548262766
-0.3169328374059647
0.41088090578674924
-0.7253489000107565
-0.9486232551090799
-0.8207019925003908
1.8521586169008295
1.425645459496227
0.6381704481292227
-1.9673160256797044
0.7002940955273895
0.2605165803841913
-1.3897861153462956
0.24909064886530122
1.2251813583778752
0.9549285180814877
-0.7769988278776679
0.024315862741308553
0.8903391875388762
0.04788653255647099
1.5831042446773873
0.12612416179760688
0.8885266483812293
0.9550432978789875
-0.836274963643117
0.06239630512127799
-0.15405022983779876
0.9940181455591663
0.30295479265150677
-0.37765306433749124
-1.5701318409177478
-1.6851800904235115
0.3726402953563663
-0.7588390964503111
1.9063360592165965
2.17849620485634
5.06411455499905
4.706584055996035
3.8248943562311406
2.3055694019400437
1.5663931254283798
-0.014733619920055396
0.734328526853267
-1.7346979164100946
0.9657663355997956
-1.2088510479979424
-2.318451860568179
-1.7602135796764327
0.3810991080619144
1.1497951184488775
0.055973534407708914
-1.5522786930897285
-1.5874749907230443
1.2971177739918094
-0.018217861601392216
-0.4532101739970331
-0.27137996751040083
0.40887494758973764
0.8839737014002875
-0.9001577297361626
-1.1545919568144787
-1.0780043731695679
-0.3997102141680653
-0.8809130905216049
1.566008111539058
-0.42966093946339684
-1.2142892800637282
-1.1236523283906341
-0.3277090098713721
-1.6956642810221805
-0.034825578764721546
-1.6523495108163488
1.0523360633483054
-0.06253855481977612
1.9393479829383062
-0.3234966055924968
-3.009049446631898
1.3323227504441923
0.5469347355286561
0.6691403925308564
-1.1583940706053872
-0.11181108172884804
0.3594307197954426
-0.2078593562178815
-1.6245972529732629
3.02319135704061
0.9228166486638405
0.036446273643331306
1.36800516423711
0.5205699247041264
-0.3151423580788681
1.3296366393405252
0.7327283470835058
-0.5259834314258207
0.8081728488784662
-0.5841614949200427
0.38109035604915575
0.5185424840998104
1.6526213598597617
-0.6708821419558162
0.6528208774193571
2.1007058562123584
0.018777177832234426
0.09819287960301615
2.084831710587287
1.517117295372223
2.539509913046351
2.946513612241899
4.499881358977298
4.283741627524026
1.3573528097178111
3.1944409120059367
0.45148700150310384
0.9533573875131416
-0.6842773538701088
0.3944998278727014
-1.5160533378052072
0.17611767774240822
0.4149435376776479
1.8270086636554566
-0.1250706665754718
-1.239914082749108
-0.6365407592392218
-1.6999405864486323
-0.8812262872891453
-0.3830310095599712
0.0010555698071820219
-0.9084464780473681
0.765099456653722
0.7500186827259916
-1.7419231428626156
-0.4760387333593775
-0.21734008846884056
-2.643670085729312
1.873032705964012
-0.7501956551469292
-0.9725867256379195
-0.39477250782365303
0.1853268735147523
-0.9180775488816237
0.9949623317283736
0.1680098270705761
-0.873721291081867
-0.11743132882320201
-1.601756854337824
-1.2796925331731919
0.347093728718545
-0.7919582744009317
1.8979148489859432
0.12237075044444694
-1.2969602567494942
-1.179513962947333
1.0730276391828357
-0.11930468844658429
0.6295230852722119
0.15963502189230877
-0.4145975425940668
0.9235835299774748
-0.8125652961519128
0.2198259888543206
-0.31062392023390895
0.5823257051506154
1.8082470184077144
-0.7084487284270206
-0.46945755993388294
0.8022526052199215
-1.2473997151197933
1.6486442986898477
1.2700296796519912
-0.896773446306449
-1.7208484291193982
-1.0027831278468338
-1.5076880040261156
0.6007653813349991
1.3274070515220944
0.8307969642998234
1.070396370373383
4.681977360589943
3.311778081839816
4.821542052698841
4.723120819257037
2.2480668678674
1.1258253414543964
1.0637830379767441
1.9092693067819086
2.8248231247687685
-1.1954763263627055
0.49938171035362966
-1.409854406529743
1.5312793507585714
-0.7757269716878915
0.16903315830865717
-0.13829372868459325
1.981845032804729
-0.05358636977152692
-1.3839689759153508
0.3147454503185824
0.8730488500672238
-0.155999948665992
-0.9106026910521092
-0.5081046697685264
0.8800907664387793
-2.013053118058808
-0.25341381304914345
1.2671853690801336
-0.08216216018571332
2.3101257787007885
-1.6137754484199287
-1.1639094722517602
-2.1432077359022443
1.9309448221333299
-0.9969176324105694
-1.5673822739272676
-0.4924586410591308
-1.5205095130439117
-0.5918772777034582
0.04855323621654834
1.1421397349148994
-0.1667768240181169
0.4668904300008697
-0.8409417625541384
-1.518168777983798
-1.9991113314052122
-0.4634515014202863
-0.009984522378657393
-0.5808758572260263
-1.4632926318642177
0.4859121590366746
1.7098337851971384
-0.209516892489022
-0.7161771861316202
0.08786770805203456
-1.0443496543158837
-1.1978643200160657
0.5596526895547227
1.1685356372144309
-0.1779063581998146
-2.1312302301533825
0.08912579317034824
2.117508505205741
0.18955103117831415
-0.3999784293936717
-0.6527397139071268
0.346242766024052
-0.76578977167723
1.2044865936921605
-0.7086321778175949
1.6464470799181354
3.524575165222913
4.945422546996619
4.113599357422088
4.899791341718363
0.37017450406471825
0.1900159487301974
-0.12226828595620343
-0.2217577418712638
1.3317351294446391
-1.2830548422885673
-0.1536958427435405
0.5580489073472046
1.049906868730348
0.086900379199535
0.42340843209196
0.7606748904190359
-1.0927794205501091
1.67070980817684
-0.9895591436113637
0.0828720218854292
1.5973859502560837
2.109083706331403
0.10533362874261298
0.9952647963657234
-0.44321224115705987
-0.8667001848298089
-0.9787369068448224
0.6145245342961384
1.3500526019175791
-0.3942469718785505
0.3364119286748275
2.7298142070503557
1.2274776531284575
-1.0403973316516155
0.6512617389993176
-1.0069988065538487
-2.8988895566934323
-0.14997560351174655
1.3059847496009953
1.2478058974444464
0.584381662487243
-0.39209025637106487
0.5207316430933476
-0.15174058505085145
-0.7400423854881775
0.9029172439546098
-0.4638327648349547
0.9263347902895114
-0.5705063123461709
1.8059870360123345
-1.970557026171842
-0.8095535804955925
0.05004143624522939
-2.1102081019695516
-2.8750786592493434
-2.4170820547131893
0.07631081959587799
-0.24443183918312106
0.21140082179921624
-0.2697837945418381
-0.08314998551893693
-0.32623671968515594
1.114837295848748
0.43775860139764655
0.14999878747185397
0.5097304547801703
0.14270468976006462
-1.4608817065339674
0.9657228791836205
-0.5380308980953721
2.7949684218655175
3.4940319021978086
2.622245837782727
0.9166004057918877
4.726492066632448
0.6497380822249905
1.3795490831096724
0.4870602313582604
0.08002586910812126
0.7553861094050636
-0.5709709898378151
-1.0620236197440094
-0.8719433118107149
-0.20689829554268688
0.16376201166370336
-0.4434384087974563
0.05437184776939298
-1.0101120274100717
1.711382222348814
0.8398227937321735
0.6802266712959145
-1.7939417019853963
0.5609400824225174
-0.5743565633555814
-0.6900207293833951
-0.7360815093144363
-0.5641701690159571
0.6080941430610584
1.4221639160153623
0.8308797024841802
2.676752560650132
-1.392067283904395
-0.3484484539698961
-0.8507524881262918
1.3786449305565713
-0.2435168419957823
0.5418512155160496
0.8784069086645847
-1.550189994201013
-0.4591766199983518
1.1419824108799257
-0.6000402315654547
-1.7812942979181074
-0.6593612853286875
-0.2892068042103775
0.21879489795671894
0.20940750314229684
-0.10755004180340555
0.8339884494523566
-0.17324098674613012
0.2242021643864967
-0.5416086908408291
1.5842112419625904
-0.48966680683426095
-0.1785453373293046
1.3857644910968299
0.4024587612207158
0.17138254976958378
-1.886232907812467
1.0472251068846357
-0.10201738354164097
0.5837931457879422
-0.09475989981146951
-0.5828258818976365
1.017626243772506
-0.024818039911085887
-1.326826764864605
1.4685026162521457
-1.3126395379409541
0.6694028980647702
1.561686746910655
0.7880998942970895
3.809472136723175
3.912556435853019
3.6217762012150296
5.823372067915224
-0.1296845918491173
0.5713821249629747
2.857612633543454
0.879238004225466
0.16961110838893328
-0.38278782224225916
0.5382897168667482
-1.1272151458677984
0.3201725832523472
-1.7191869211809758
-2.0453566622144996
-0.8476652984698347
0.6879910938720628
0.5666103366848461
-1.7803927844885303
0.8677618411803214
-0.11667558547259554
-1.1534675296725425
-1.3476494860165416
0.3401536086201403
1.4518292879497297
0.20055917568863071
-0.8359708268991963
-2.1908205124986466
1.517304519859152
1.2355869886460065
0.3907350340930866
1.514415173676926
0.2897642731356571
-0.4685329746622392
0.16215278845484105
-0.5987474477407128
-1.0177543993505385
0.9131244011043809
0.394629666523239
-0.9415398996592848
-1.468080011196432
0.0632185127730936
-0.2874567557338726
0.2115055592808761
0.21145717501742803
0.9614638860565735
0.18937651805907907
-0.7679433498671113
-1.8015427272105677
0.24438334236305764
-1.9506462745709672
-0.568964956240214
-0.7625486033953639
-0.8725376912156797
-1.4028407126806601
-0.39319123741128015
1.0658483242112131
0.7760411253697517
1.6953931220156724
-0.1753555111981976
0.3141049149807358
1.1262141186120225
-1.118326910509742
0.7713718418108638
1.0734268683277002
-0.9827298468499888
1.1368839157937327
2.0158631379687013
1.1318048170782506
0.8441979765446752
0.44837529653368624
4.961352935266082
2.79932837593732
3.9663811780219627
4.321327652174294
-2.242357447975257
1.6414966766673253
3.4769916109230508
-1.001352111205312
0.7113764013871219
-2.648424827335316
-1.5278230316150707
-3.022910842249805
-0.8772400928517179
-0.2344231699816935
-0.3946183280713065
-1.9785113611353948
-1.1025286812771158
-0.40932868672448786
-1.547948043303787
-1.646604685638309
0.01950855700368337
-0.8147863212526953
0.2750887892777895
0.9903438153759578
2.582357958091981
0.2447806296673955
0.5609867957081451
-0.7404037425097745
-0.3930895927527279
0.763941242635073
0.009657757919639964
0.27257067634900656
1.2651127077874302
-0.29744428597708855
1.717030568798865
0.5645775048326656
0.39971227407352017
-0.42044553349612435
0.9278051400600904
-0.6232473125483742
0.5543687188910619
-0.31910344133593826
1.067137507436291
-0.18740746847185527
2.280167201619049
-0.2955708587879755
-0.5252790281825526
0.6723368062923705
0.9312704720050001
1.2070669236483922
0.040090756025757485
0.5783486695734129
0.6978891471384878
-1.1304542532031185
0.5852553618138472
-1.3954838445509852
-0.5894714109804409
-0.06339575411647456
0.034344495934070574
0.6749002013496004
0.32115280149138714
0.29403890247085307
-0.9936657969582279
0.19699494112778307
-0.05152935740870571
0.42905875650508185
-0.23773798656684422
0.7526231505932018
-0.471272848766695
0.6358393056848946
1.760531297680998
3.448772443039646
3.207104309983777
4.291533561969707
2.3465849849035467
2.185329341603731
0.6994324868550706
0.6602134313973407
1.2287923405422205
1.2615433912923615
-0.5996495296655826
0.6294461679243817
-1.295476151635622
0.5502803062798101
-1.3557562083956718
-0.08922742379977892
-0.7688979860737383
-1.712203813015781
-0.08002275866996572
-0.35132010817246007
-1.505398978179581
-2.3045501624881126
-0.024086168514770773
1.5709246856103225
-0.23682599019686346
-0.590247541302535
0.9350475054401086
0.8155460025038214
1.2727833051527242
0.37316835566871864
0.9137106185338852
0.6677670421577099
-0.6529489445938063
-1.6280323743999554
-0.8591746393196121
1.1200623326794346
-0.28689105339389975
-0.08440931918384176
-1.0080080916367165
-0.3180190956487997
-0.025358712190575658
0.7116520747605433
-0.4756780003058707
-0.6684296003275545
0.7636254414694521
0.3786620444125557
0.6657080348266129
1.528613157031129
-0.6398057627309957
0.2398328388824407
0.26419647215381553
-1.0049484385532785
0.4076066138975166
0.3754879465666127
2.8734356644132024
0.14984701329783945
1.098766731526197
0.939557445456695
-1.130688068938825
-1.6997301087636083
0.18521585169219668
1.0838454628108354
0.29063794243933977
0.11121969862569475
0.042789986780302935
-1.4434406717345285
-0.9966760685497097
-1.3704774245370568
-0.7420287290216734
-0.4310660419496174
0.7253033872273456
0.4843046531267432
3.513063131980823
3.5757262607607037
4.145412029586859
2.5550386046830393
2.5037434574495587
-0.1263493947924216
0.7268434858129557
1.3672315916194913
2.581066044771445
0.7834744617586654
0.26344398408468284
1.0529364333856122
-1.4758646481339406
0.9125569470855035
0.17048366737693227
-3.01018550079217
-0.8150734637087695
0.09990393211972141
-1.4420751657562045
-0.8152771933640175
2.1970187349320422
0.33560644007073226
0.4610125816468351
-1.4571068705424777
-1.1112317959407987
-0.6685674143125369
1.0216986961046255
0.2779999217516398
-0.45530376219842755
1.0532116250926664
-0.27530144476874363
0.42471397943900546
0.0322633284918126
0.08291565738968831
0.48244001726134433
0.5302642855265624
1.1626677435537593
0.9818066146786031
-0.6897995566573404
-0.34395876116957863
1.1215970690465589
0.04114305348409367
-0.08094747585137613
-0.6212987545678834
0.23444731024629367
-1.1088581561037536
1.5021221322026126
-1.2651465304505274
1.2231454672473867
-0.3652819440618835
-1.0440985486966223
0.045147218533314826
-0.8116356576227681
-0.022223494365889607
-0.3669897436770153
1.0460953902857062
0.4950454780104595
-1.2769466172500328
-0.42824233554488655
0.3475850052303928
1.865423842405654
0.1135144992265672
-1.1036580063134478
1.0022112687243179
0.6511590601659212
1.674546908922884
0.46991901848955
-0.6092605762739627
0.26912548177072304
0.565550150543165
1.0434185862328076
3.9109628667282057
3.359275367532253
4.2546644986322075
4.400101756042062
0.10210497737106156
-0.22635508144131058
0.902199522185784
0.8780814410048138
1.285022142389802
-0.11250550079439103
1.2580611636682795
-0.6423132548675425
-0.7433215279196339
-1.3204644037819881
0.5378060458797829
-0.419736135038236
-2.159186309808337
-0.2686319560704815
-0.37524781896725623
0.028567451751610157
0.5516797338906464
-0.7254439431423774
1.693837634379226
0.17069746240027678
-1.8393870305443851
-0.03307537643514509
0.43641976097769675
-1.0187568235753621
0.6062241374927714
1.8363420747017163
-0.604884451011013
-0.016620484685411108
0.2540253647308866
0.985636152073819
0.0012114681400443167
-1.1390130674773737
0.948887391869984
-0.8960121532143669
1.7768529375468072
0.6959434694612234
-0.5848677501223963
1.1399833789692781
-0.5937307938422858
-0.45018301795912796
-0.9091025392296948
-1.8349125559519037
0.858725617026127
-1.651809782760833
-0.6236346959904047
0.562495085115451
-0.472697716801451
0.271947210957284
-1.1645065701832855
-0.376915472496457
0.24160177489149498
-0.6621462339753756
1.7809132724370604
-0.5938296888729956
1.202926671782009
0.11536948510645526
-1.849885272281143
-1.478113424715273
0.2503714265948819
0.8566237143354796
1.987596933194852
-0.20852239647990203
-0.9848824529924574
0.44268146749232545
-0.8016114805385719
-0.027722707321509832
0.5494355334951568
2.8928432319917095
6.204723673159346
4.853475739251875
4.970443489086871
1.9043206291394292
2.332238575990082
1.823222495853855
0.9118277606022043
1.3218870727197698
-0.9447505551571247
-0.7079795375490873
0.0032795002435506704
-1.063539421060813
-0.2524390012999539
-0.11221197436460048
-0.2665792948662661
0.42172103034821873
-1.690578595070352
0.8206050793663987
1.0744546229944
-0.505059658806312
0.6838204415607787
-0.4280944684889593
0.8612714953839176
-0.6601050539086568
1.4092921196655557
0.796202319884334
0.9946577419485501
-0.26353595879241165
-1.379717986923992
0.8389136191848026
-1.747474344466971
0.9532393261979473
-0.5218770975272862
-1.3117818222951652
0.37249514557267666
0.8280567256205581
-0.6398782088424384
1.6360025772669025
0.9768530453046668
0.07780304052679118
-0.5417843519980895
-0.6089518670401892
0.5853627420321222
0.948936072625411
-0.8168981300981534
-1.2393406806873681
-0.13077777155718828
1.4994627492462909
-1.4142786426816207
0.9049119620685794
0.17345346742238216
-1.2814604034936374
-0.5606304413472953
0.4337402863956856
1.8615856377908773
-1.2003221104119535
-2.89203449523374
-0.9045345987595459
1.3107525322948417
-1.8699958482747534
1.178757296423746
1.478693305324895
0.4294224893057726
-0.6869158843393812
0.12537571733965183
0.5809933726436
0.5625962409470924
1.5346694670437686
-0.49360627384186606
0.7078805487489696
2.5640529028424015
2.078360968089135
3.9002653486160086
3.84895523097909
0.9416202713268872
0.5260408826866214
-0.07243168210155666
1.3729728678527198
-1.372622874134867
-1.121279175832151
0.5199634168294657
-1.2077572515316262
0.48024790292192465
-0.9064884480310655
-0.7866480724985736
0.2624033338154591
-1.2636894742722213
0.5793308885181485
-0.5384450784103695
1.4462285119404494
0.45671018805872815
-0.7459432053241907
1.6476960856197382
-1.080833043895951
-0.41551908842340846
1.019034419829
-1.7333542581924983
1.3370031427783722
-1.1792473518601458
-0.8657429789613852
0.5907477142782058
-0.3547011303854203
0.8641320088890143
-1.553156604296581
0.7366129474790366
0.8210017634414679
0.8268695941013259
-1.6552738128053093
-1.275145103378588
-0.08934454957118437
-1.445005969017689
-2.1160518055098865
-0.5411988274805748
0.6046307804283411
2.655150632297214
0.5292344199937344
2.035452472303784
-0.1495302874409989
0.5264589149377583
0.012761962618487499
3.0254845902227903
-0.8147012364680538
-0.27155525130895425
0.7402349456833397
0.03028716254633837
-0.37425071741560445
0.7288635371844371
0.05325512156145391
0.58173287477952
0.45170247057962964
-1.755100617070363
-1.3828136102545494
0.9005912668633549
-0.8296965981179386
-0.14838430325194815
1.629994876092894
-0.34652801977153813
-0.27138431252924733
0.8671598460980785
-0.289870446985133
2.687762661794148
4.66232484786093
5.9294516203708145
3.6038089138098433
5.541269885552081
1.923662035928863
-0.07405343943498621
-1.151920888345348
0.676385512108354
1.5499201843491592
-0.4208166074466806
-0.9159451223728287
-0.5428221483307016
-1.103287802336903
0.6981893307805777
-2.195954474999194
-0.33824339442207607
-1.350848902284825
-1.7117178460804534
0.4158113573585852
-0.9568690765308275
-0.31026239774298314
1.7449700492124796
0.6425205191457255
-0.21314105574233577
-0.2927880890628143
-1.3858363104335627
1.4751971335128715
0.8638007585544912
0.29651983353829975
0.9361947430412092
-0.44527841903544246
-1.4363045084320474
0.18307303501679217
0.8838467935772435
1.5521310831763702
-0.12524777374465026
-0.5162051339540781
-0.3059556546881636
0.3867272288283456
-0.23773512618696924
-0.32881827061784746
0.9185377883835406
-0.7759455930343456
0.7628710771624542
0.7918406359464029
-1.7588126254978353
-0.24476578697422513
-2.4423671996400897
-0.3275893062540771
-0.47199251200816245
0.949195937807452
-1.1735951365032204
0.47402699347993305
0.45449222774655645
-0.11382088046933375
0.9899873843621975
2.171164278164647
-0.25071767177419263
0.53258988481212
-0.8236013533517579
-1.0702952294522567
0.7067901483358782
0.5905357414165282
-1.1093162031977342
-1.5332085468864696
-0.7154885257787171
0.0398584620355491
-0.4637306519664297
0.10042588078601974
0.857131957239643
1.8797895332179748
5.226066076296782
2.064121449141349
2.8446863844761205
3.6807268164406595
0.9542511402424821
2.2351327949080493
0.7256407584345488
1.8831650989113244
0.24783486520478426
-1.7423605286553963
-1.674673389663635
2.171507734367044
-1.0677465640722288
0.15583155952738106
-1.8041805388330983
0.9853484374909016
0.268287139009669
-0.2004257246143591
-0.30161487274183585
0.48664951114521404
0.7424363924294206
-0.8677427477986919
-0.5404059423164608
0.3341676441114772
0.4599308956737357
0.12788660236194557
0.6525756303346757
0.6128930713772627
-0.24293770629571815
-1.7521221427946343
-0.40891141095489986
1.537960705720128
0.5987196725269455
-0.5388415799267396
0.41776813287584474
0.5206308777427788
-0.8620203816590828
1.4719265804967772
0.26414817199089036
-1.0700477249272515
1.0601654528799618
-0.43497377861866715
0.054884986300320876
-1.0702803577268782
0.37596281293362394
-0.07403071847365794
0.7134161612434999
-0.013387140304087497
-0.8544250610926823
-0.7968064926636206
0.24985905550618417
-0.7088467408170958
-0.23967313520768663
-0.692886951718434
0.5337314468370539
-1.7781312210222042
0.5161294638001223
1.601631764438077
1.6083007229973423
-0.5614783206984425
0.7488684640820038
0.32365616596447877
1.3132611831909429
-2.562819106354594
0.8355137267676271
-0.2898243960025726
-0.7088103642240516
-0.7626574696575364
-1.0338748711839072
-0.6439451736865174
-0.2859236595975642
3.8942944838584506
3.457080235190892
2.9424399232790632
4.204138183206377
0.45152480232988057
0.48313206908228223
-0.08656398148418115
1.4929605279990337
1.640464084298937
0.04013006031655873
-0.48694562320403134
-1.805984115346364
-0.7170702565065024
1.1007024753080856
0.5947426307575945
-0.15156440867700055
-0.9746423981008697
-0.30618899545700656
-0.8480633474189916
1.1202865429739668
-0.7365081362925636
0.9660608876972898
-0.6688466359030831
1.571058558949646
0.18893112682553082
-0.9556823087270176
-0.17564161993331567
1.0618677262062148
-0.6146232620199471
0.10470075992783529
-0.7514168808026156
1.5733200850306852
2.1575115312954667
1.536276559543151
0.10827198589432262
-0.18549089581969794
-1.1970735181376044
1.2965304227919883
0.9856188710167308
0.6393428853192282
-0.4607889454017077
-1.4725040033758263
-1.6362707848629403
0.19969377862671656
-0.528307910396803
-0.773688545251555
0.01230651918851755
1.0603202511723675
-0.41030596078297665
-1.4359151816093287
-0.6637515046319546
-1.347921723222331
0.4583975776759793
0.06406757768239059
2.029232392315522
0.8458748696298996
1.407545874848718
-1.4952623277345642
-3.4463150184905413
0.18118637327199272
0.10098195389463813
0.09048496369111036
0.1548441329683502
-0.8404597901531914
0.4232766349990147
0.4527779285179731
-0.9087001888390147
-0.26694537326916484
-0.4405182026115403
-0.5832463264582216
0.5608493571320736
3.4124253388045145
3.491080420236562
2.677647515442141
2.343417886991074
1.8100003837789858
0.8347970839879026
0.9952779915868633
0.7308367998331518
3.120785077750143
-1.0411859535329369
1.5377260012100258
0.5020184831698171
1.503560434124665
0.2644369540541742
-1.1364607177506207
-1.4846637066886244
-0.6442406774676803
0.5888332482449823
-0.3882682431796951
0.7931654893279728
0.3736270684866789
0.36929222800218237
0.47983807428833736
0.8164637634808278
-0.5948839040089734
-0.23553799112580884
0.28238936206178933
0.1864147974107348
-0.5163042339471776
0.6401170612102302
-0.6567213148970217
-1.299221459825615
0.5598033246115628
-1.2568675083276795
0.09096967320497973
-1.9568295049289124
-0.8898145358911438
-0.14033576554166444
-1.7757216113786556
-0.39574619851533865
1.3729611363415295
-1.4127491186006242
-0.263144538857422
1.5079615976713088
-1.012984237571332
1.5106727215053768
-0.28743538638225635
0.1086173433785789
1.3802793957214905
-0.5411996562259133
0.8089363996194106
1.1588253161940056
-0.8359709390947916
-0.40801825220725524
-0.28930064754865353
0.20155364878273038
-1.1369313962639613
-0.5001247836396375
-3.3265020345662766
-0.41173499093907695
0.9089196579371979
-1.3787090235031871
-0.5275810214959348
2.358823594592305
-0.25325348157075706
1.6703048118289567
-1.108070633992118
0.6888144493618141
-1.3024891934558833
0.634781537983367
2.2300064631919834
4.520717574285116
3.4696355929793103
4.105755563894992
4.112760074357853
1.8778773152241548
0.9071301484603692
1.7069653374777676
2.383029740840116
0.6547795566512175
-0.7104091880518428
-1.2731685039680019
0.1558447817589589
-0.009938985941749679
-0.22018337648802302
-0.09874885681523177
1.5242548036489167
-3.0696230091024534
-0.534211155664186
-0.9775465428526167
1.387942662472993
0.9412123060093232
0.5337989127797561
1.2528858008049237
-0.23156518784769362
0.9072135646827957
-0.7185645273991904
-0.868071420508435
1.7388167811473378
0.219063145222493
0.5984420647407713
-1.0894507819457484
0.4108039207773209
2.00078725043485
-0.4258668873689505
-1.2277844715866386
0.291462711931717
-1.0099522954736204
-1.403352709774364
-0.8214785012934952
-0.3680723868135385
-0.8568041545276193
1.5200907975866842
1.5124784149872765
0.7198972439422457
0.5644494460153832
-0.22433983886920894
-1.005897098961708
1.4626347100291441
-0.2692546283568191
-0.32943346126493983
1.471137207306037
-0.18478819431204052
0.8839845538504807
-0.40666939915996464
0.6972419229797373
0.8406575500429893
1.3134352859374394
-0.8882105041936765
0.15644883893094363
1.68900660592267
-0.0662110142640285
1.1047262524095567
2.366909966591287
-1.8765313072586576
-0.2302992753770755
-0.0862425228961027
-2.206092298969055
-0.6518216845814162
-0.9736171001496425
0.6695480913567409
-0.5434112055555452
5.324568932173335
4.058312726062934
2.4972838525072443
4.424663440782789
1.8860340017852513
1.037234696371236
0.23078207599902117
1.6835390313285443
1.1959435675405223
-1.384647457192531
-2.218516185425701
-1.3441446921425548
-1.3115262596923765
0.4276800611643956
0.1946671104100389
-0.8874855637461878
-0.7215088110538694
0.6947872490220093
-0.651065793397468
0.17878666463330029
-0.816052695584779
-0.049357031503023924
0.06611818786180641
-0.20779211664691016
0.6016806301031877
0.5658670916657003
-1.449790303841508
-0.7598474224574245
-0.5140186001833738
1.6814666628584636
2.523062047218338
-0.2817745867003173
-0.3694836348598679
0.6060703416756548
-1.0694157078061215
0.7482688960057327
-0.0034480192010180113
-1.9452965573335
-1.2142159656442744
-0.2074825133476714
1.1280504658411714
-1.1605381439736886
-0.25791528854770535
0.21815267170677208
-1.2805237544078234
0.31702911093606123
-1.5112975026498572
0.3742848454638657
-0.8934867489155508
-1.253809694098399
0.004071751874838048
0.9422235189663736
0.31974317943379027
0.12311189412693156
0.07371701327980532
0.30521714687293927
0.6746488843699388
-0.3654366986924194
0.4184999727618828
-0.5921132864034018
1.4364009815809777
0.8813845823985268
2.359159046942473
0.7580050347793561
0.5777787028507113
-1.1876842144354696
1.1614595564411632
1.2742269625468494
1.479629185558017
-0.1469821308422698
1.0541549006120197
3.4283386733993373
3.2092664076950737
4.3886179173381725
2.440027774004019
0.3907919486433105
1.0549319694466197
1.0115836270882166
0.3345595208593965
-0.11387943020128122
-1.4646358922743978
-0.6305062023657312
2.391455424001866
0.8988471866017441
0.07417779511109737
0.11584234147570471
0.8338496949877223
0.34710913370668817
-0.7478652382140213
-0.7427352429345095
-0.010715898283612621
1.1087093930063578
-0.46473789959858547
-1.3587174778150393
-1.7349582868219546
-0.23573356578229715
-0.9031140540203001
-0.30066371019852467
1.4693331824771898
0.11169292346961025
-0.711799895127579
0.13441335787810724
1.8812997237373856
-0.09354963988960532
-2.1697412905236018
0.6950667454138103
0.2321399399959867
0.283356616685257
-0.14302608951138124
-0.49813742976744957
1.5324297177243003
-2.0457750774629915
-0.07356520810204195
-0.44769816427852344
0.9125266277973457
1.2728039832575369
-0.21760794402991987
0.15900185783324683
-0.0524420119005245
0.852905454483498
1.2571569118091603
-0.45265340094407897
0.8197608115616033
0.17571082806596888
-0.12204116792035657
0.606420437824435
-0.09297694019451064
0.06081719029230229
-1.4146742846402465
-1.0070309310679393
0.9241149892693159
-1.5666299107823043
0.7986543906752869
-0.2733586463365398
0.6072203917308077
0.6467526625332405
-0.5287593632675317
-0.25884429763807243
-1.9230224994929723
-0.0014298572818838007
-0.932818471870611
1.6094434993162015
4.1590038718698645
3.907221982517125
5.301631279197995
3.199214116678634
-0.5159777650721742
0.09585098951732873
0.29093058551163
-0.10070951027874428
0.2842165153866477
-0.05049601644480842
0.3524435862591089
0.2293862817100245
-2.064465145357742
-0.14543585313869825
-0.02616330140628026
-0.9498343187075065
1.2823993412305048
0.5542108944848427
-0.3883383403149159
-0.7104257797870932
1.4825002667893776
-0.0538896793402346
-0.09361284184327257
0.06562033135975137
2.2311647040213147
-0.3190312848563915
-0.12490868930506194
-0.6319396301938105
-0.315655960008104
-1.3732314995231691
-0.634136011940764
-1.7066402488477634
0.9730275513477754
0.3343285148362634
0.24211529966297962
0.07157842978952282
-0.021128370453926695
1.7886551348922726
-0.7251500808266294
0.0029644673920037334
0.4802681364111176
1.116208298641681
0.38503027075018154
0.4003853526987032
-1.332142294325505
-0.7629752886902166
-1.3644044030966531
-2.789594332384545
0.18430622828771343
-0.18528526974000598
0.3666840592670403
0.25812790545089603
0.22745376865460526
1.5066180334189414
-0.1312678323340648
0.5819607762233824
-0.3003388544473545
0.795392723602831
-1.2877106610463218
-2.011979112001592
1.7895480624912463
1.962507466710943
-1.8416624255748366
-0.15888717059102064
0.22569310063920928
0.6896823800744014
1.9604432469096993
-1.3238621706841915
-1.0330270938279986
-0.042480523081002766
0.1943063034653469
0.8700479087497237
3.0247736262812484
4.282927468212168
3.2267264865300302
2.0863896468534158
1.8797376692230023
0.15451317473512735
1.2351231312470827
-0.1796067221243781
-1.1247844235770998
-0.39321285059279953
-0.5541045360450222
-1.6991069013501827
-1.602991555509011
-0.32934915999117176
0.566662262613049
-0.640848800212195
-0.7495363084879672
0.5334811948761088
-1.1063035806065906
2.145066531057329
-1.340335151872617
0.6558617495125288
0.7785867494048486
2.2598428218586166
-0.9124266497268817
-2.309709361058441
0.9353634023275941
-1.4190811655987479
0.6533183817636732
1.4125053745046317
0.4841935387954358
-0.015701442908824692
0.6013938893306473
0.7546090068112801
0.9311215465340048
-1.2875397842612268
1.7827414502905323
-0.11327603163784856
0.4186219793446697
0.5584008808604396
1.39121756695454
0.7858051625637452
0.29265275359502063
0.2331985088883367
0.6841204875582114
1.1088133116414538
-1.3179604364477409
0.6097438127699675
-0.7673828989998356
1.8681595127014978
0.44065971842164003
-0.14297034747259485
0.5451172725546192
0.04888996339262408
-0.5290592947765651
-1.9659953733386941
-1.1051280268165529
-0.5358757353734052
-1.9102078569738363
-0.6408668095969736
-0.5210183677272447
-0.6782805736091998
0.731296294854362
-0.8305611900189773
0.004850922260750831
-0.3447613130798798
-0.028602700981793266
1.9009268027837427
0.07675779021293208
2.1848034625679413
3.9009182089309817
4.830740744430004
5.476044920553671
5.215924606257511
-0.4468618014504182
0.5936418638578159
2.4253020903006894
0.33739864143432996
2.744701038624273
-0.9481366338227268
-0.5567783983290424
-0.8894788393613932
-1.3821918936556499
-1.3278376791223914
-1.517489244797759
-0.11902110215924178
0.14993469461609846
-0.335728463295928
-0.5548572705146216
1.3316428397439541
-0.08345210628194019
-0.8876336488733548
-1.0020213782186393
1.2669912564463583
-0.5210018916993603
-0.394985156061446
-0.6753491112100144
1.0523760230992378
-0.4559597243914086
1.1127867578976358
-0.3736774982366492
-0.9617019445450472
0.11615709882617026
-0.2507992335426697
-0.15190958604666807
-0.07258174269633706
0.1341071028879664
-0.9317654162641048
-0.17717933394475627
0.3516645912709754
-1.218311041921322
1.1574959624054197
-3.8666487462328614
0.1214420405053799
0.527731197790221
-0.3891487154724569
-2.1074495635691357
-0.0469376788999942
0.14864180148757355
-1.4095801192814823
-0.8700543450531953
0.975278810647652
0.0289170637635094
-1.8215677865874345
0.2228318242029074
-0.9383950915573976
-0.588211813645596
0.5341142119054412
0.06772391155511073
-0.5459813953013265
-0.578711274288614
-0.4600820859636875
-0.6230443848103466
1.5165345776533872
-1.7077006758794664
-0.4792869034057117
-1.258108407380492
0.9996120569143137
-0.17532452880787702
-0.7390338072469218
1.430106086513754
1.0527413038193225
3.872096455512911
4.78752518431989
3.7321091981246917
1.1234623182170034
-0.16640819418714736
2.110191758227475
2.0901127538779374
0.6866377307710595
-0.9693300343379535
0.9517627981019078
0.5258631027436996
-1.781230025183568
-0.3577837567701686
0.045514824181323243
0.43815770987698244
-0.4807841923683889
-1.0567103778014801
0.1318955698412033
-0.17470453391848767
3.3692352290083774
0.02228874266877047
-0.1787575879101407
1.6092051735428217
-1.1370748342619335
-0.186231866244397
-0.8892429356020775
0.269848908131491
-0.2938952750430107
0.6976493807776775
0.23911315838455188
0.8321780262868171
0.5254674644274739
-0.31407037782356234
-1.9782381711492958
0.8770190886629889
1.4695136538203812
-1.0475813014030293
0.6915383542608958
-0.8710113903874916
0.18793057253264014
-0.009939409957263834
-0.46318984593478013
0.11495025480536222
0.6831322401048343
0.03753321389719111
-0.9675832990644073
-1.2513274325838544
-0.6855161465230896
-1.233859124700596
-0.2357580495403839
-0.4975784488724877
0.7600942684881816
0.07902903191737375
2.5628131835116976
-1.874838852366281
0.4533345763397832
-0.1672171088425416
-0.9225172233785705
-0.36191439359817384
0.06697278756390823
1.3477777091869503
0.5835974502399673
-0.4024604115634038
0.23615088164820397
-0.1922147582138008
-1.1796038944287583
-0.3298507545334084
0.20824499923936265
0.32943105065875955
1.0454557414122099
3.976781629455671
5.265286530888036
5.114625412572972
4.700106207050786
1.546531083379802
3.555294488589586
2.240598878283022
0.9923635042224511
0.05021455611031361
-0.783189677150599
1.4085537076680978
-0.7695392977961275
-0.6182413113890457
-0.6268800185591301
0.0021691672979325697
-0.8396159197478014
-0.14963707899019246
-0.779546965873463
0.6204434298411317
-0.7277899376778474
0.9731252781794553
-0.38717598713816337
-1.020007554208799
-0.6600116762209411
-1.5988677277704335
0.40892901062274245
-1.5149356865973533
-0.15590572347388376
0.9110498440040837
0.775107355749571
-1.423592835819437
-0.04574139997938881
1.2954253094862709
-0.33956370152418874
0.2908242239174542
-0.874275874540223
0.6119485125060611
-0.09736770334034991
0.5823182359548735
0.3200585582667714
-1.36651127669693
0.22621675323022392
1.1888200180698172
-2.10814826675749
1.0947512665577643
1.7324008308728343
-1.393735006067676
-0.91639720642366
0.49344851824052277
-0.8156546937508301
1.6567843081131821
1.059389431653575
-1.2998549806879622
-0.9294634626600532
0.5388580146018471
0.47404500480125045
2.1343863804808674
-0.46747197484810976
1.3788025875840209
-0.8409886739751595
0.6117405241700706
0.6740366197522523
-3.0809214629888606
1.0360893258692871
1.4702351738832709
0.6970828281378939
2.1722208808691272
0.8549792053371333
-0.6421685406110875
1.3199842730079998
1.3985837444600524
4.6272443378856325
5.652506654787615
4.744809608848867
5.962193999311116
3.1872578977632537
-0.2741682614900862
0.41919668374339325
0.8549603618796497
0.16612146724313162
-0.6259689109687285
0.2928169339858124
0.5173507798422641
-0.024497122165073243
-0.027719041209664314
-0.08237706467411443
1.1237060543057533
1.5686231967299333
0.802818679549209
-0.8184621078191664
-0.8657398085839492
0.05613350457846039
-0.8098897330759387
-0.07149737435665968
0.13543610399623918
1.0721223360078929
-0.32530067207630425
0.9368783221881632
-0.9227995740461157
-0.724635551658677
-0.3530044760897201
0.07775438364898586
-2.176026220246686
0.12331641610996003
1.7343359699040883
0.40943994140149753
-0.05914773941990059
-1.2521777987435359
-2.307511367367883
-1.4867301418658272
-0.18451413379867082
2.178235941671589
-2.4316716100915947
0.77449810642151
-0.6438297956041519
-0.34494903487422923
-1.1671601832938145
-1.4104883631059828
0.5204169543608375
0.1877596404428895
0.6371373268346395
-1.4338267276871213
0.5657146012976958
1.0158323644465712
0.1067177024704617
-0.341123873692169
0.3039489775093043
-0.03796902465071954
0.766021455954128
-0.4735509148650971
0.24083502073778493
-1.8402885082715008
0.4564028412959221
-0.7077204887669865
0.42331586577453706
0.7253540596416991
-0.6092719757609285
-0.012848120340563433
0.3205448620998478
0.29380786602850417
0.6752516404014713
2.7738406373577695
3.2260435365285702
5.180607281692364
3.9452143923978484
4.887603395122502
0.7854629909239832
0.9042611000616521
0.3448628685543903
0.35931731458280125
1.4267904154988589
-0.3706487723021875
-0.595547128929337
-1.7380754846930269
1.372799845841586
-0.22205732997075595
-1.9554540904760092
-0.21095823983799777
-0.4516929327324598
-0.9654834703647597
-0.15188764401628782
-0.32162215060986254
-0.588540076029474
1.2063470300543042
-1.81959189220573
0.04944816438101953
0.9450969612888633
0.597328147585528
0.9234139342916355
1.7599807298913284
1.8172952892483893
-1.0416598825181322
-1.7340731343058393
0.10662137847363076
-1.0428967940522038
-1.87712322997769
0.3956365161265947
0.6550748976251853
1.4706439058327545
1.0682863867937966
1.8388604993807975
0.5199625861217665
-0.8445836979940019
0.8384622625752637
1.0980174177727973
-0.10760970478557547
1.4428673034953525
-0.07322182348966637
0.4297440903782003
-0.14719499065048575
2.4651125590313145
1.040046244486139
-1.162418209076449
1.8435291337826072
-0.7688998242440991
0.020414886231909263
0.3656639196408876
0.4463988979447572
0.3927176556339377
-1.1017922570155543
0.3175718295918829
1.0104471505104207
1.4335820234184395
-1.122532725351161
-0.8470690969343512
-0.8715870600821665
0.4652914068171864
-1.5724316847433286
-1.2643373616827487
-0.8294378121482784
-1.7520220776740751
-0.1970458362983984
-0.1185831774095964
4.204800716469652
3.037712091052626
3.047067584383101
2.9002362180053103
0.5662336011811582
1.5824112689055272
2.402560714851582
2.1760274627467613
3.0677093872054013
0.5020902963362245
-0.14319044401198738
-0.5219850800710609
-0.6827711223338293
0.35442579221917825
-1.5721568248979272
-0.16288540796074844
-0.20176665815458714
-0.9289314997675642
-1.2170386430715097
2.5488484311700184
-1.526975566845347
-0.07954787105040666
1.231990680958907
0.5774050266347933
-0.6671086413326782
-1.2453204526827977
0.1120529213606984
-3.087959580883687
0.3363680166706222
0.0676297782226624
1.1231857026162433
-1.2464390052900889
-0.20622132474001537
0.27051648205083006
0.07060490985733439
-1.2169804877620602
-0.5760693831550725
1.144391507197735
0.5748005593087226
-1.815815678691859
0.8567134357530689
-1.2499072487323901
-0.7189768114547693
0.2220243905825499
1.3020926174364396
-2.833631580831563
0.30289140697367356
1.096756205309295
-0.638790141838948
0.5301270012937129
-3.258925682952057
-2.811676674582008
1.2166588652439716
-0.444589532150921
-0.3971921545999081
0.10498440150554275
-0.3196597459086144
-0.18331495630177885
0.5470507998247085
-1.6220299409414152
0.9615631226447254
-0.36880782241634485
-1.2604070778140362
-1.1107277880568829
0.20540912220217986
-0.3206257094784576
-1.2048867159328565
-0.24675219034719859
-0.747651949117132
1.4022440846162065
1.942033872209531
4.891985597063807
2.939287318647137
2.9878210552593667
4.0788366541000896
1.9021656479551248
1.9468360816283607
-0.046828313399279814
0.15344378316146437
0.848941713247773
0.5285984641910125
-1.7938574178690345
-1.1316576013253057
-0.1389353161554512
-0.2480954184990884
-0.5598953089338952
-0.7516420437577382
-1.6656561039818873
-1.6205154489616138
0.3749058122283131
0.7287954788969282
-1.4683096189690756
1.0369987495799995
1.6372328949975148
0.254698377442012
0.2870939001894639
1.4099583183453979
-0.4954358141163888
2.238126390828622
1.0680127022241497
0.7482359999724466
0.00024599620674315564
0.32462447487620183
-1.5899042945588215
2.0006484043333463
0.9640797497047421
1.666930847454549
0.1871020013465551
-0.1925809005677757
-0.5093731246863733
0.6303678599052869
-0.6332845340156703
0.10437457140282547
0.5680015511630496
-0.9534224555771993
1.0873356295023393
0.11321717444377227
-1.4033110308219303
-0.8575765994006558
1.6855297618217748
-1.2371214307841334
0.9162567732703012
0.46898400724778894
-0.05336888494202488
2.6798380645935453
-1.4948490727636816
-0.6707243134704088
-0.03075060152239723
2.1897405582172107
0.1519131211026846
0.11035559082531812
-0.476020426020341
0.4451444429788732
-0.30246649576546486
0.729180209164458
0.7332873947315273
0.04850700587260934
-1.310486167543787
0.0006080909845332244
1.498356059937012
-1.0242441605074133
1.274368782791905
3.76351674452341
4.0753717370426505
6.4416497941972395
5.651589753582137
1.662015832734587
-0.8191633903858189
1.0078120247013924
2.1066633693403665
0.24524569823290965
-1.287460835194548
-0.10348468514435297
-2.022812066700019
-2.7046337452868072
-2.3324484538954375
-0.5425660395687176
-1.6005827013672536
0.10987567329997452
-0.46046603502265215
1.181057108807303
-1.0775614411889327
0.5701628986376929
-0.8723411232137541
1.1295819037457755
0.05085280546007337
-1.035627028989119
-0.29867635348263155
0.18217597339658567
-0.6574096237906201
0.7113887706005777
-1.0721352179141073
2.0454276485877885
0.9853475065065699
0.25869640844621
2.764655158313772
-0.0947285277690666
0.5526713747880648
0.29939094434063274
0.6195693451101348
1.407178361636046
0.30243726411322325
1.4126805819875647
-0.27529605481298086
-0.08705834980806115
2.0685081043209697
0.750913373805985
0.21392849612842424
-0.6787402756651831
1.2387533522307785
-0.9575286559840539
-1.3107294132234182
0.19614158435490872
-2.519862480238438
0.15909644287927943
0.12835752735917458
-0.41508842850656946
-0.2524804076104569
-0.10372708478973888
-0.3880881095002525
0.1430475761580744
-0.19376983247829407
-0.2127262521862806
-0.16195569299779833
-0.28568888385689417
0.0034407272413992107
0.5943014510041191
-0.42693541840052324
0.2862080387835753
0.4989220562121958
-1.1757083782147746
1.3839189095129716
3.2266508117703125
4.53385403713491
3.7051599710588183
4.084776522163017
4.821898025402224
1.6651782027973723
-0.19815621424824306
0.3518462896500343
1.3632136558742842
0.7981958534313724
-1.8133292724860888
0.38119784198534634
-1.441565786939682
-0.7308849373386986
-0.9971927747119914
-1.8866003925080703
-0.5037103507014079
-0.6350070681397264
-1.2508345699479404
-1.3557095801235932
0.6332159979631871
-1.8458429084237178
-0.8118146776852582
0.335155329318497
-0.6667416940087738
-0.553465074593567
0.8540973835711895
-0.6940121594650802
1.8190500182234457
-1.8408770877739067
-2.4345347522233687
0.5401052291035414
-1.1240945914802
-0.8418816585167614
1.031546472030813
-0.748589226895912
0.8291595451888275
-0.4719190744795938
0.2728332480178861
-0.7949757186042022
-0.4682865665874198
1.6972095914041276
0.8837463963600224
-0.6923879777686414
-0.1955167032769857
1.1679311774284067
-0.9695466429008889
-0.7373609345289591
0.42347843080680564
1.8584548508178809
0.12221587398531021
1.1703912485363315
-1.1347221716542502
0.2452400216681886
0.0919565481999684
1.7349822188583284
1.3743146511462805
2.284439553656564
-0.5805208239433282
0.14198495314800488
-0.11844662653707788
-0.7886139375036788
0.36163280875315085
0.9743159294271707
-0.7975238100327894
-0.4548745981577845
-0.576676232348631
-1.403022706393262
1.029886304455745
-0.3057171693342764
-1.0219833692978835
1.8205828936946966
4.91862473337368
4.1371273495926015
5.1918040378317345
4.014388315219447
-1.0641731503763596
1.9688908652480939
0.004586352779677887
0.07115042671550156
-0.0020182184017625004
-0.19746391667088609
-0.5997617873582873
0.8113652694312874
1.5679320120208893
-1.239141441863958
-1.2298770905764538
-0.8379024817788632
0.17436534665741824
-0.42483101705679205
-1.0019199719963225
-1.0060605896923454
-1.8327366135599024
-0.8953396145110958
1.3840362178041106
0.46220260585643147
0.0023053216182669922
0.2411577355112431
-1.2886556108597915
-0.05777534898348031
-1.7571915047356845
0.5645445391881041
0.26332201128864396
0.2112097554545142
0.8869638740117365
0.7541394940854325
-1.0744580759451285
1.014501702478284
-0.6101199197205521
-1.515300471422262
-0.041720528087665604
0.6028143724241534
-0.7356529359050777
1.3611541120039496
-0.6569101968259159
-0.2318197143601761
-0.9196417105180952
-1.616977287897198
-0.6480764913264957
-0.9115894425753313
-0.3273804522568519
-3.1649147057815052
0.8946367404578699
0.76355084401639
0.7943067794214524
-1.4234662533800146
-0.34321440640606743
0.918980446419525
0.8600917984396529
1.548582582555382
0.31280663063360203
-0.1843671314083494
-1.8944404023757238
1.0042533299239669
-0.30905689594560126
-0.050265091736768894
-0.33233921947600975
-2.242003688648211
-0.528386094637054
0.4578844800586982
-0.36974397477750326
0.39825686743250116
0.8141547164764388
-0.985183242092826
-0.3984758343915222
-0.3226793485387601
0.778624489024562
-0.27976245507463265
-1.6579261943988588
-0.20103670686397893
0.6939721109528525
1.196446374771512
0.28752972710342717
-1.5380381766710864
-0.5804767970606652
0.506955352572889
0.9390090261684907
